Sample (Time) - CH1	Volts - CH1	Volts - CH2	Volts - CH3	Volts - CH4	Volts - CH5	Volts - CH6	Volts - CH7	Volts - CH8
0	0.000380468	0.000348139	0.00093379	9.06E-07	0.000476456	0.000554752	0.000169659	0.00013814
1	0.00035367	0.000337839	0.000921392	-2.94E-05	0.000444841	0.00052433	0.00014286	0.000121069
2	0.000360155	0.00034833	0.000931406	-2.03E-05	0.000446272	0.000528288	0.00014987	0.000125408
3	0.000385189	0.000350046	0.000932407	5.20E-06	0.00045867	0.000544119	0.000170279	0.000143719
4	0.000367308	0.000334787	0.000914335	-1.55E-05	0.000427628	0.000517178	0.000153112	0.000132132
5	0.000344419	0.000317478	0.000893497	-4.21E-05	0.000392199	0.00048666	0.000128412	0.00011797
6	0.000310612	0.000298643	0.00087142	-8.52E-05	0.000342798	0.000439596	8.92E-05	9.34E-05
7	0.000311708	0.000298452	0.000871706	-8.82E-05	0.000326586	0.00042758	8.43E-05	9.24E-05
8	0.000330067	0.000295687	0.000865889	-7.19E-05	0.000323486	0.000431681	9.79E-05	0.000107384
9	0.000309277	0.000276613	0.00084157	-9.78E-05	0.000280142	0.000393581	7.24E-05	9.31E-05
10	0.000282335	0.000254774	0.000814867	-0.000133085	0.000229883	0.00034976	4.25E-05	7.62E-05
11	0.000243902	0.000231314	0.000787354	-0.000180817	0.000169754	0.000293779	-1.62E-06	4.88E-05
12	0.000240135	0.000225782	0.000780869	-0.000187683	0.000143194	0.0002738	-1.07E-05	4.56E-05
13	0.000256681	0.000223255	0.000775337	-0.000174141	0.000133562	0.00027442	-9.54E-08	5.87E-05
14	0.000233316	0.00020256	0.000747871	-0.000203943	8.54E-05	0.000233698	-2.56E-05	4.44E-05
15	0.000204754	0.000177574	0.000717211	-0.000242424	3.54E-05	0.000185823	-5.77E-05	2.68E-05
16	0.000166178	0.000155401	0.000690794	-0.000290966	-2.48E-05	0.00013175	-0.000102043	-2.62E-06
17	0.000163937	0.000151539	0.000686741	-0.000295115	-4.93E-05	0.000115347	-0.000112152	-5.20E-06
18	0.000182533	0.000148106	0.000682735	-0.000277424	-5.45E-05	0.000118494	-9.89E-05	9.87E-06
19	0.000167656	0.000132465	0.000665283	-0.000299168	-8.34E-05	9.21E-05	-0.000116158	6.68E-07
20	0.000154686	0.000123978	0.000654697	-0.000315428	-9.73E-05	7.67E-05	-0.000128651	-6.01E-06
21	0.000130796	0.000116777	0.000646734	-0.000341749	-0.000120878	5.27E-05	-0.00015254	-2.52E-05
22	0.000141573	0.000127125	0.000661325	-0.000328016	-0.00010767	6.59E-05	-0.000141287	-1.98E-05
23	0.000174475	0.000137806	0.000672245	-0.000293112	-7.73E-05	9.69E-05	-0.000110006	4.48E-06
24	0.000167704	0.000132513	0.000664282	-0.000300074	-8.56E-05	8.93E-05	-0.000116587	1.91E-07
25	0.000156116	0.000125599	0.000656271	-0.000315332	-9.86E-05	7.63E-05	-0.000128126	-6.39E-06
26	0.000130796	0.000116539	0.000646973	-0.000341129	-0.000120115	5.15E-05	-0.000152349	-2.49E-05
27	0.000141096	0.000127125	0.000661039	-0.000327587	-0.00010891	6.34E-05	-0.000142193	-1.88E-05
28	0.000175142	0.000139475	0.00067296	-0.000292683	-7.82E-05	9.65E-05	-0.000110722	5.53E-06
29	0.00016799	0.000133038	0.000665712	-0.00030036	-8.48E-05	8.91E-05	-0.000116777	5.25E-07
30	0.000155115	0.000125599	0.000656843	-0.000314808	-9.63E-05	7.72E-05	-0.000127935	-5.63E-06
31	0.000130367	0.000116539	0.000646877	-0.000340414	-0.000119638	5.26E-05	-0.000152636	-2.44E-05
32	0.000141287	0.000126028	0.000660181	-0.000327778	-0.000107288	6.50E-05	-0.000142193	-1.95E-05
33	0.000174093	0.000137568	0.000672388	-0.000292444	-7.72E-05	9.69E-05	-0.000109863	5.25E-06
34	0.000167465	0.000132418	0.000665283	-0.00030036	-8.58E-05	8.91E-05	-0.000116396	-4.77E-08
35	0.000155163	0.00012579	0.000658607	-0.00031538	-9.76E-05	7.60E-05	-0.000127745	-7.63E-06
36	0.000131989	0.000115967	0.000647974	-0.000341225	-0.000119543	5.30E-05	-0.000151157	-2.52E-05
37	0.000141048	0.000126219	0.000660324	-0.000328398	-0.000109529	6.43E-05	-0.000142384	-1.95E-05
38	0.000174093	0.000137758	0.000672531	-0.000292587	-7.82E-05	9.68E-05	-0.000110674	4.91E-06
39	0.000168228	0.000132751	0.000665331	-0.000300312	-8.61E-05	8.90E-05	-0.000116444	-9.54E-08
40	0.00015583	0.000125599	0.0006567	-0.000314474	-9.74E-05	7.75E-05	-0.000127745	-6.48E-06
41	0.000131273	0.000116158	0.000646305	-0.000340414	-0.000119829	5.28E-05	-0.000151443	-2.39E-05
42	0.000141525	0.000126171	0.00065918	-0.000328398	-0.000109482	6.40E-05	-0.000142384	-1.94E-05
43	0.000173998	0.000138569	0.000672054	-0.000292587	-7.82E-05	9.67E-05	-0.000110149	6.63E-06
44	0.000167847	0.000132847	0.000665569	-0.000299358	-8.58E-05	8.96E-05	-0.000116301	2.53E-06
45	0.000155115	0.000125122	0.000657225	-0.00031395	-9.68E-05	7.74E-05	-0.000127888	-6.01E-06
46	0.000131655	0.00011611	0.0006464	-0.00034194	-0.000119543	5.31E-05	-0.000151682	-2.29E-05
47	0.000140095	0.000126791	0.000659657	-0.00033083	-0.000110102	6.38E-05	-0.000143194	-2.01E-05
48	0.000173521	0.000138712	0.000673246	-0.000293255	-7.85E-05	9.70E-05	-0.00011096	4.91E-06
49	0.000168562	0.000133133	0.000665808	-0.00030036	-8.47E-05	9.06E-05	-0.000116062	1.91E-06
50	0.000156546	0.000125837	0.000657129	-0.000314045	-9.72E-05	7.93E-05	-0.000127077	-6.63E-06
51	0.000133419	0.000116634	0.000647593	-0.000340462	-0.000119066	5.57E-05	-0.000150156	-2.35E-05
52	0.000140476	0.000126505	0.000658894	-0.00033102	-0.000109959	6.26E-05	-0.000143051	-2.04E-05
53	0.000173855	0.000139523	0.000672626	-0.000293684	-7.82E-05	9.60E-05	-0.000110817	4.58E-06
54	0.000169086	0.00013423	0.000666332	-0.000298929	-8.52E-05	9.08E-05	-0.000116205	2.24E-06
55	0.000156164	0.000126648	0.000657415	-0.000314188	-9.63E-05	7.86E-05	-0.000126553	-5.05E-06
56	0.000133801	0.000116301	0.000647354	-0.000340414	-0.000119877	5.48E-05	-0.000149775	-2.24E-05
57	0.000140476	0.000126505	0.00065856	-0.00033102	-0.000110531	6.29E-05	-0.000144053	-2.02E-05
58	0.000172901	0.000138378	0.000671673	-0.000294256	-7.93E-05	9.65E-05	-0.000111532	4.24E-06
59	0.000168943	0.00013237	0.000666332	-0.000299644	-8.48E-05	9.12E-05	-0.000116253	1.72E-06
60	0.000156593	0.000125504	0.000657463	-0.000313902	-9.59E-05	7.83E-05	-0.000127983	-5.29E-06
61	0.000132751	0.000116539	0.000647879	-0.00034008	-0.000118351	5.42E-05	-0.000151062	-2.19E-05
62	0.000140047	0.000126076	0.000658941	-0.000329971	-0.000109768	6.30E-05	-0.000143671	-1.94E-05
63	0.000173044	0.000137377	0.000672722	-0.000294113	-7.93E-05	9.61E-05	-0.000111532	4.72E-06
64	0.000168943	0.000132608	0.000665855	-0.000300694	-8.57E-05	9.05E-05	-0.000116777	-2.38E-07
65	0.000157547	0.000125074	0.000656366	-0.000314283	-9.76E-05	7.79E-05	-0.000127506	-6.96E-06
66	0.000134516	0.000116491	0.000646782	-0.000339603	-0.0001194	5.52E-05	-0.000150299	-2.35E-05
67	0.00013957	0.000126076	0.000657701	-0.0003304	-0.000111675	6.26E-05	-0.000143957	-2.17E-05
68	0.000173235	0.000139046	0.000672007	-0.000293112	-7.75E-05	9.60E-05	-0.000111055	4.48E-06
69	0.000168228	0.000133657	0.000666237	-0.000299072	-8.35E-05	9.10E-05	-0.000115871	2.29E-06
70	0.000154972	0.000126314	0.000656414	-0.000313282	-9.72E-05	7.79E-05	-0.000128984	-6.77E-06
71	0.000131655	0.000117826	0.000645685	-0.000339174	-0.0001194	5.46E-05	-0.000150967	-2.37E-05
72	0.000137186	0.000126171	0.000658083	-0.000331259	-0.000111437	6.17E-05	-0.000144815	-2.17E-05
73	0.000173235	0.000138617	0.00067215	-0.000293636	-7.93E-05	9.52E-05	-0.000111437	5.05E-06
74	0.000168991	0.00013361	0.000666285	-0.000297832	-8.46E-05	9.10E-05	-0.000113869	2.34E-06
75	0.000156355	0.000126076	0.000657368	-0.000313568	-9.71E-05	7.82E-05	-0.00012641	-6.15E-06
76	0.000133419	0.000116968	0.000646877	-0.000338125	-0.00011878	5.50E-05	-0.000150013	-2.25E-05
77	0.000138712	0.000126123	0.000657892	-0.000330591	-0.000112152	6.12E-05	-0.000145292	-1.96E-05
78	0.000175524	0.000143862	0.000676298	-0.000289202	-7.48E-05	9.95E-05	-0.000107813	8.25E-06
79	0.000185442	0.000152683	0.000687075	-0.000280666	-6.32E-05	0.000111675	-9.48E-05	1.47E-05
80	0.000188875	0.000157785	0.000697613	-0.000279236	-5.74E-05	0.000117207	-8.76E-05	1.71E-05
81	0.000180912	0.000160551	0.000707817	-0.000288153	-6.02E-05	0.000112104	-9.13E-05	1.16E-05
82	0.000199842	0.000183153	0.00073905	-0.000265312	-3.26E-05	0.000139856	-6.56E-05	2.40E-05
83	0.000247335	0.000209379	0.000771809	-0.000213528	1.71E-05	0.000191832	-1.53E-05	5.95E-05
84	0.000257778	0.000215101	0.000782347	-0.000201321	2.74E-05	0.000202227	-3.05E-06	6.78E-05
85	0.000254297	0.00021615	0.000786686	-0.000205135	2.72E-05	0.000200462	-2.91E-06	6.68E-05
86	0.000239611	0.000217056	0.000787401	-0.000224304	1.50E-05	0.000186634	-1.62E-05	5.80E-05
87	0.00025034	0.00022788	0.0008039	-0.000209856	2.81E-05	0.000200319	-5.77E-06	6.22E-05
88	0.000285673	0.00024147	0.000819731	-0.000170422	6.32E-05	0.000236607	3.03E-05	8.82E-05
89	0.000279379	0.000235701	0.000809383	-0.00017848	5.34E-05	0.000228405	2.26E-05	8.35E-05
90	0.000258398	0.000221586	0.000792313	-0.000201845	3.26E-05	0.0002069	2.53E-06	6.93E-05
91	0.000226879	0.000200891	0.000768423	-0.00023489	-5.72E-07	0.00017314	-3.09E-05	4.63E-05
92	0.000218344	0.000200224	0.000765085	-0.000243568	-9.82E-06	0.000163364	-4.17E-05	3.84E-05
93	0.000239992	0.00020051	0.000761127	-0.000220966	7.68E-06	0.000181389	-2.44E-05	5.29E-05
94	0.000222826	0.000182343	0.000735331	-0.0002388	-1.59E-05	0.000158072	-4.71E-05	4.22E-05
95	0.000194359	0.000162506	0.000706434	-0.000271511	-4.80E-05	0.000126457	-7.84E-05	2.21E-05
96	0.000158501	0.000141382	0.000676203	-0.000314713	-8.77E-05	8.54E-05	-0.000119448	-5.44E-06
97	0.000146103	0.000134993	0.000667572	-0.000323629	-0.000101995	7.19E-05	-0.000134754	-1.65E-05
98	0.000171328	0.000139284	0.000672245	-0.000294304	-7.93E-05	9.54E-05	-0.000111675	2.48E-06
99	0.000170088	0.000134277	0.000666189	-0.000296879	-8.30E-05	9.16E-05	-0.000113726	2.53E-06
100	0.000157356	0.000125837	0.000657845	-0.000312614	-9.54E-05	7.82E-05	-0.000126553	-6.53E-06
101	0.000135279	0.000117445	0.000647879	-0.000337172	-0.000116444	5.49E-05	-0.000148487	-2.05E-05
102	0.00013752	0.000125504	0.000658894	-0.000333834	-0.000112534	5.81E-05	-0.000145626	-2.14E-05
103	0.000171137	0.000138187	0.000673151	-0.000295687	-7.97E-05	9.28E-05	-0.00011344	2.77E-06
104	0.000170135	0.000133657	0.000667143	-0.000297356	-8.25E-05	9.22E-05	-0.000114489	2.05E-06
105	0.000157881	0.000126076	0.000658703	-0.000312376	-9.61E-05	7.83E-05	-0.0001266	-5.63E-06
106	0.000135136	0.000116491	0.000647974	-0.000339079	-0.000118065	5.53E-05	-0.000148487	-2.35E-05
107	0.000137091	0.000123358	0.000657368	-0.000334263	-0.000113344	5.81E-05	-0.000146008	-2.32E-05
108	0.000171566	0.000137615	0.000672579	-0.000295115	-7.99E-05	9.42E-05	-0.000111055	3.53E-06
109	0.00017128	0.000134087	0.000667906	-0.000296783	-8.20E-05	9.24E-05	-0.000112152	4.01E-06
110	0.000158119	0.000126696	0.000659275	-0.000311708	-9.52E-05	7.91E-05	-0.000124788	-6.25E-06
111	0.000136328	0.000115824	0.000647402	-0.000337219	-0.00011549	5.74E-05	-0.000147295	-2.23E-05
112	0.000136328	0.000122595	0.000656843	-0.000333214	-0.000113058	5.94E-05	-0.000145578	-2.25E-05
113	0.000170135	0.000136614	0.000671148	-0.000295639	-8.02E-05	9.27E-05	-0.000112867	1.96E-06
114	0.00017004	0.00013299	0.000666046	-0.00029645	-8.23E-05	9.23E-05	-0.00011282	3.29E-06
115	0.000156403	0.000126123	0.000658083	-0.000312471	-9.54E-05	7.92E-05	-0.00012579	-4.58E-06
116	0.000133085	0.000116062	0.00064683	-0.00033803	-0.000118637	5.53E-05	-0.000149536	-2.26E-05
117	0.000119162	0.000114155	0.000641632	-0.000339794	-0.000130224	5.16E-05	-0.000163746	-2.56E-05
118	0.000112534	8.66E-05	0.000616503	-0.000329971	-0.000136232	4.82E-05	-0.000171757	-9.82E-06
119	6.26E-05	2.45E-05	0.000557327	-0.000361013	-0.000176525	-9.25E-06	-0.000217915	-1.51E-05
120	1.80E-05	-1.24E-05	0.000518656	-0.000358391	-0.000149298	-2.42E-05	-0.000260544	4.10E-06
121	4.36E-05	2.32E-05	0.000555277	-0.000280094	3.62E-06	7.35E-05	-0.000226068	6.02E-05
122	0.000185776	0.000146294	0.000705338	-0.000134563	0.000291872	0.000334597	-5.39E-05	0.000131178
123	0.000428772	0.000326729	0.00092907	5.33E-05	0.000611115	0.00069046	0.000247002	0.000214052
124	0.000677776	0.000513315	0.00117297	0.000179815	0.00088973	0.00104027	0.000548792	0.000260782
125	0.00092001	0.000692987	0.0014185	0.00021143	0.00108228	0.00134425	0.000854206	0.000253963
126	0.00108666	0.000824261	0.00159717	5.38E-05	0.00100169	0.0014133	0.00102811	0.000134373
127	0.00109987	0.000839901	0.00161881	-0.000248718	0.000627995	0.00121255	0.000979185	-7.65E-05
128	0.000988293	0.00074234	0.00148673	-0.000631714	0.000141668	0.00090723	0.000793409	-0.000307894
129	0.000768471	0.000574827	0.00126042	-0.00108743	-0.000390244	0.000515079	0.000512457	-0.000545692
130	0.000509644	0.000387859	0.00100689	-0.001401	-0.000793266	0.000145483	0.000172901	-0.000713539
131	0.000256729	0.000211287	0.000765514	-0.00142379	-0.00087738	-0.000140858	-8.57E-05	-0.000700426
132	0.000127029	0.000121641	0.000646877	-0.00119767	-0.000719404	-0.00022583	-0.00021143	-0.000534153
133	0.000102806	8.44E-05	0.000604868	-0.000872326	-0.000466967	-0.000157881	-0.000218201	-0.000324774
134	8.98E-05	5.66E-05	0.000585222	-0.000622845	-0.000289059	-7.06E-05	-0.00021348	-0.000169134
135	9.30E-05	6.96E-05	0.00059576	-0.000468206	-0.000195789	-6.72E-06	-0.000199509	-8.81E-05
136	0.000110292	9.98E-05	0.000621128	-0.000391388	-0.000153732	2.25E-05	-0.000182247	-4.70E-05
137	0.000131512	0.000120497	0.000649929	-0.000344419	-0.000122356	5.12E-05	-0.000155735	-2.80E-05
138	0.000169897	0.000136805	0.000671816	-0.000298071	-8.23E-05	9.20E-05	-0.000115204	8.11E-07
139	0.000172186	0.000133944	0.000667477	-0.000295353	-8.12E-05	9.31E-05	-0.000113678	3.72E-06
140	0.000157499	0.000127077	0.000658417	-0.000312328	-9.52E-05	7.89E-05	-0.00012598	-5.34E-06
141	0.000135851	0.000117016	0.000647879	-0.000336409	-0.000115299	5.77E-05	-0.000146818	-2.00E-05
142	0.000133085	0.000123549	0.00065608	-0.000336456	-0.000114536	5.68E-05	-0.000149012	-2.37E-05
143	0.000168753	0.000137043	0.000670958	-0.000296402	-8.02E-05	9.25E-05	-0.000115252	1.76E-06
144	0.000171852	0.000133371	0.000666904	-0.000294065	-8.00E-05	9.40E-05	-0.000112486	3.86E-06
145	0.000157022	0.000126982	0.000657749	-0.000311995	-9.48E-05	7.89E-05	-0.000126076	-4.67E-06
146	0.000137281	0.000118017	0.000646639	-0.000335121	-0.000114346	5.86E-05	-0.000145912	-2.04E-05
147	0.000135279	0.000123787	0.000655794	-0.000336885	-0.000113678	5.76E-05	-0.000148535	-2.36E-05
148	0.000168753	0.000137377	0.000671673	-0.000298357	-8.02E-05	9.18E-05	-0.000115108	2.57E-06
149	0.000172758	0.000133896	0.000667477	-0.000294733	-7.98E-05	9.47E-05	-0.000111294	5.53E-06
150	0.000158405	0.00012579	0.000659084	-0.000309896	-9.41E-05	8.03E-05	-0.000124931	-4.77E-06
151	0.000138092	0.00011735	0.000647831	-0.000334978	-0.000115204	5.88E-05	-0.000146437	-1.99E-05
152	0.00013485	0.000123358	0.000656891	-0.000336456	-0.000115681	5.65E-05	-0.000148773	-2.44E-05
153	0.000169611	0.000136232	0.000671291	-0.000297308	-8.25E-05	9.13E-05	-0.000115061	7.63E-07
154	0.000172234	0.000134182	0.000667953	-0.000294495	-8.03E-05	9.47E-05	-0.0001122	4.10E-06
155	0.000157022	0.000126076	0.000658655	-0.000310946	-9.40E-05	8.00E-05	-0.000125933	-6.34E-06
156	0.00013628	0.000115061	0.000647211	-0.000333977	-0.000113535	5.81E-05	-0.000144911	-1.91E-05
157	0.000133228	0.000121307	0.000655699	-0.000336838	-0.000116014	5.56E-05	-0.000149536	-2.45E-05
158	0.000167465	0.000137138	0.000671482	-0.000298357	-8.21E-05	9.10E-05	-0.000116348	5.72E-07
159	0.000171566	0.000135136	0.000666618	-0.000294971	-8.04E-05	9.39E-05	-0.000111675	4.82E-06
160	0.000158787	0.000127363	0.000658464	-0.00031147	-9.53E-05	7.96E-05	-0.000126266	-5.58E-06
161	0.000138187	0.000117397	0.000647497	-0.000334549	-0.000115347	5.86E-05	-0.000146723	-2.02E-05
162	0.000134087	0.000122452	0.00065546	-0.00033679	-0.000116396	5.62E-05	-0.000150251	-2.54E-05
163	0.000167799	0.000137186	0.000671339	-0.000298691	-8.33E-05	9.02E-05	-0.000116587	-1.19E-06
164	0.000172567	0.000134373	0.000668859	-0.000295258	-8.04E-05	9.48E-05	-0.000111437	3.81E-06
165	0.000157833	0.000127029	0.00065918	-0.000312138	-9.56E-05	7.96E-05	-0.000126219	-6.01E-06
166	0.000139046	0.000118303	0.000648785	-0.000333261	-0.00011096	6.16E-05	-0.000144577	-1.98E-05
167	0.000142384	0.000132513	0.000665474	-0.000322342	-9.16E-05	7.77E-05	-0.000137901	-1.98E-05
168	0.000190639	0.000162172	0.000697374	-0.00026741	-2.29E-05	0.000140858	-8.65E-05	1.47E-05
169	0.000210381	0.000175714	0.000712347	-0.000242519	1.62E-05	0.000176096	-6.10E-05	2.93E-05
170	0.000209284	0.000180292	0.000720882	-0.000238657	3.94E-05	0.000191641	-5.69E-05	2.88E-05
171	0.000204611	0.000186491	0.000730419	-0.000239182	5.93E-05	0.000204468	-5.54E-05	2.35E-05
172	0.000217152	0.000208187	0.000756645	-0.000219297	9.65E-05	0.000233984	-3.99E-05	2.88E-05
173	0.000266123	0.000237274	0.00079093	-0.000159216	0.000169373	0.000300741	1.44E-05	6.54E-05
174	0.000286007	0.000251675	0.000807953	-0.000132799	0.000212955	0.00033865	3.87E-05	7.96E-05
175	0.00028677	0.000257015	0.000817919	-0.000127077	0.00023427	0.000355625	4.57E-05	7.80E-05
176	0.000282907	0.000260496	0.000825119	-0.000129175	0.000252819	0.000365829	4.54E-05	7.42E-05
177	0.000290346	0.000279427	0.000849533	-0.000116253	0.000283766	0.000391436	5.84E-05	7.69E-05
178	0.000337934	0.000308037	0.000883293	-5.94E-05	0.000351477	0.000453186	0.000108624	0.000111151
179	0.000355387	0.000318766	0.000893831	-3.63E-05	0.000384283	0.00048275	0.000130463	0.000124502
180	0.000348759	0.000320959	0.000897598	-3.72E-05	0.000396872	0.000489902	0.000130558	0.000119638
181	0.000339937	0.00031991	0.000896883	-4.70E-05	0.000402927	0.000488615	0.000124836	0.000111294
182	0.000343704	0.000333929	0.000915384	-3.94E-05	0.000421047	0.000504065	0.000129223	0.000112534
183	0.000384998	0.000357294	0.000940514	7.39E-06	0.000469589	0.000555086	0.000171614	0.000142908
184	0.00039711	0.000357342	0.000941515	1.88E-05	0.000485849	0.000568533	0.000184345	0.00014987
185	0.000384808	0.000351238	0.000936413	4.53E-06	0.000480175	0.000559616	0.00017457	0.00013895
186	0.000364733	0.000341606	0.000925541	-1.48E-05	0.000463533	0.000541353	0.000156689	0.00012722
187	0.000358295	0.000346231	0.000933218	-1.95E-05	0.000459003	0.000536156	0.000150299	0.000119972
188	0.000391293	0.000359631	0.000947857	1.56E-05	0.000486517	0.000566912	0.000179577	0.000144768
189	0.000392962	0.000357676	0.000939894	1.75E-05	0.00047965	0.000563192	0.000180769	0.000150347
190	0.000370646	0.000344658	0.000924635	-8.63E-06	0.000449991	0.000535202	0.000157785	0.000135326
191	0.000343084	0.000324869	0.000902557	-4.09E-05	0.000413132	0.000498438	0.000129938	0.000116634
192	0.0003263	0.000320482	0.000898027	-5.89E-05	0.000385284	0.000473547	0.000112677	0.000102901
193	0.000352812	0.00032444	0.000903273	-3.40E-05	0.000393867	0.000490236	0.000133371	0.000122213
194	0.000349092	0.000313139	0.000886488	-4.48E-05	0.000371027	0.000472164	0.00012455	0.000121832
195	0.00032053	0.000291729	0.000861311	-8.08E-05	0.000322247	0.000430393	9.29E-05	0.000101328
196	0.000288963	0.000266695	0.000831985	-0.00012002	0.000269032	0.000381422	5.58E-05	7.91E-05
197	0.000267315	0.000257492	0.000821686	-0.000144815	0.000226498	0.000344133	2.99E-05	6.27E-05
198	0.000286436	0.000258493	0.000820589	-0.000128078	0.000223684	0.000347328	4.31E-05	7.83E-05
199	0.000279188	0.000242376	0.000797606	-0.000143337	0.000190544	0.000321102	2.91E-05	7.44E-05
200	0.000248241	0.000218916	0.00076952	-0.000182343	0.000136137	0.000272942	-5.29E-06	5.26E-05
201	0.000212717	0.000195408	0.000741291	-0.00022521	7.94E-05	0.000221777	-4.48E-05	2.82E-05
202	0.000188971	0.000180674	0.000725079	-0.000255203	3.38E-05	0.000181246	-7.35E-05	1.12E-05
203	0.000208759	0.000182343	0.000725317	-0.000238991	2.76E-05	0.000183487	-5.97E-05	2.68E-05
204	0.000203228	0.000167513	0.000703382	-0.000251913	-2.81E-06	0.000159836	-7.02E-05	2.36E-05
205	0.00017271	0.000145054	0.00067606	-0.00028758	-5.54E-05	0.000114679	-0.000105476	3.39E-06
206	0.000143576	0.000121164	0.000652122	-0.000324917	-0.000102997	7.18E-05	-0.000140095	-1.61E-05
207	0.000131798	0.000122023	0.000654173	-0.000338745	-0.000118065	5.40E-05	-0.000153208	-2.66E-05
208	0.00016489	0.000136805	0.000671244	-0.000300121	-8.46E-05	8.84E-05	-0.000118828	-1.24E-06
209	0.000173044	0.000135899	0.000668049	-0.000291157	-7.91E-05	9.64E-05	-0.000111198	4.82E-06
210	0.000157499	0.000127935	0.000658703	-0.000310278	-9.45E-05	8.03E-05	-0.000126839	-5.82E-06
211	0.000137901	0.000117731	0.000647736	-0.000331259	-0.000112772	6.17E-05	-0.000144815	-1.87E-05
212	0.000130892	0.000121307	0.000653791	-0.000338411	-0.000118113	5.43E-05	-0.00015316	-2.66E-05
213	0.000164604	0.000136852	0.000669861	-0.000301218	-8.54E-05	8.87E-05	-0.000119448	-2.10E-06
214	0.000172949	0.000135517	0.000668812	-0.000292635	-7.93E-05	9.72E-05	-0.000111008	6.01E-06
215	0.000158405	0.00012722	0.00065937	-0.000309849	-9.50E-05	8.17E-05	-0.000125837	-4.82E-06
216	0.000139618	0.000117874	0.000647354	-0.000330734	-0.000112152	6.23E-05	-0.000143337	-1.77E-05
217	0.000131893	0.000121784	0.000652361	-0.000338221	-0.000118303	5.45E-05	-0.000151396	-2.68E-05
218	0.000164557	0.000137472	0.000670481	-0.00030036	-8.52E-05	8.93E-05	-0.000117922	-5.72E-07
219	0.000173855	0.000136375	0.000668573	-0.000292015	-7.86E-05	9.78E-05	-0.000109148	5.63E-06
220	0.000158691	0.000127888	0.000659752	-0.000310659	-9.52E-05	8.11E-05	-0.000123835	-3.81E-06
221	0.000140858	0.000118256	0.000649166	-0.000331211	-0.000111294	6.18E-05	-0.000143099	-1.68E-05
222	0.000131512	0.000121164	0.000653028	-0.000339222	-0.000118542	5.44E-05	-0.000153065	-2.75E-05
223	0.000164938	0.000136375	0.00067029	-0.000301695	-8.50E-05	8.86E-05	-0.00012002	-1.76E-06
224	0.000174522	0.000135946	0.000668573	-0.000292778	-7.88E-05	9.66E-05	-0.000109625	6.25E-06
225	0.000159216	0.000127459	0.000658798	-0.00031023	-9.53E-05	8.07E-05	-0.000124931	-7.39E-06
226	0.000141907	0.000118399	0.000648499	-0.000331497	-0.000112391	6.12E-05	-0.000142527	-1.89E-05
227	0.000131798	0.000121307	0.000653458	-0.000340652	-0.000119066	5.32E-05	-0.00015316	-2.75E-05
228	0.000164938	0.000136614	0.000670004	-0.000302982	-8.54E-05	8.91E-05	-0.000119495	-2.57E-06
229	0.000174093	0.000136328	0.000669098	-0.000291538	-7.86E-05	9.71E-05	-0.000109196	5.53E-06
230	0.000158501	0.000127983	0.000659513	-0.000309181	-9.45E-05	8.21E-05	-0.000123978	-4.48E-06
231	0.000140476	0.000117826	0.000647688	-0.000329542	-0.000111485	6.38E-05	-0.000141764	-1.70E-05
232	0.000130606	0.000120306	0.00065341	-0.000339365	-0.000119257	5.39E-05	-0.000151968	-2.62E-05
233	0.000163841	0.000136232	0.000669909	-0.000302887	-8.57E-05	8.67E-05	-0.000119686	-2.19E-06
234	0.000174904	0.000136089	0.000668907	-0.000292492	-7.68E-05	9.67E-05	-0.000110245	6.68E-06
235	0.000160503	0.000127697	0.00065937	-0.00030942	-9.43E-05	8.05E-05	-0.000124693	-3.86E-06
236	0.00014286	0.000117731	0.000647974	-0.00033083	-0.000111198	6.17E-05	-0.000141907	-1.75E-05
237	0.000130844	0.000120783	0.000652266	-0.0003407	-0.000119162	5.27E-05	-0.000152922	-2.78E-05
238	0.000165606	0.000136375	0.000671053	-0.00030241	-8.53E-05	8.85E-05	-0.000119543	-1.29E-06
239	0.000174713	0.0001369	0.000670815	-0.000292349	-7.90E-05	9.65E-05	-0.000109863	5.77E-06
240	0.000159311	0.000128317	0.000661421	-0.000310183	-9.52E-05	8.04E-05	-0.00012536	-4.15E-06
241	0.000141668	0.00011878	0.000649118	-0.000330591	-0.000111008	6.22E-05	-0.000142765	-1.54E-05
242	0.000130939	0.000121403	0.000653887	-0.000340652	-0.000120115	5.25E-05	-0.000153351	-2.68E-05
243	0.000164938	0.00013628	0.000671291	-0.000302505	-8.70E-05	8.71E-05	-0.000119495	-2.48E-06
244	0.000175142	0.000135946	0.000669289	-0.000292253	-7.78E-05	9.61E-05	-0.000108957	6.77E-06
245	0.000159216	0.000128651	0.000659704	-0.000308466	-9.32E-05	7.98E-05	-0.000124216	-4.72E-06
246	0.000142097	0.000118876	0.000648546	-0.000329065	-0.000110054	6.25E-05	-0.000141716	-1.54E-05
247	0.000129747	0.000120211	0.000652313	-0.00034132	-0.000120163	5.23E-05	-0.000154305	-2.63E-05
248	0.000161839	0.000135231	0.000670576	-0.000304222	-8.86E-05	8.71E-05	-0.000121546	-3.86E-06
249	0.000173521	0.000135803	0.000669289	-0.000292778	-7.97E-05	9.67E-05	-0.000110626	5.82E-06
250	0.000158215	0.000128031	0.000659847	-0.000310516	-9.50E-05	8.08E-05	-0.000125837	-5.53E-06
251	0.000141335	0.00011797	0.000648642	-0.000330734	-0.000110769	6.25E-05	-0.000142145	-1.71E-05
252	0.000128317	0.000120068	0.000652695	-0.0003407	-0.000120449	5.17E-05	-0.000153255	-2.76E-05
253	0.000161934	0.000136709	0.000671196	-0.000302124	-8.75E-05	8.57E-05	-0.000121593	-2.81E-06
254	0.000175047	0.000137043	0.000669956	-0.000290108	-7.71E-05	9.72E-05	-0.000110197	7.92E-06
255	0.000158978	0.000127983	0.000659847	-0.000307751	-9.27E-05	8.12E-05	-0.000124979	-2.91E-06
256	0.000142717	0.000118542	0.000649357	-0.000327921	-0.000109911	6.35E-05	-0.000141239	-1.62E-05
257	0.000129604	0.000120115	0.000652742	-0.000340319	-0.000120115	5.27E-05	-0.000153589	-2.81E-05
258	0.000162077	0.000135088	0.000670385	-0.000304985	-8.76E-05	8.64E-05	-0.000121975	-3.10E-06
259	0.00017519	0.000135326	0.000669861	-0.000292921	-7.87E-05	9.74E-05	-0.00010891	5.44E-06
260	0.000159836	0.00012722	0.000660229	-0.000308609	-9.39E-05	8.16E-05	-0.00012393	-5.67E-06
261	0.00014267	0.00011816	0.000649643	-0.000328112	-0.000110006	6.33E-05	-0.000141382	-1.65E-05
262	0.000128746	0.000118971	0.000652981	-0.000340986	-0.000120211	5.16E-05	-0.000153637	-2.78E-05
263	0.000163507	0.000134993	0.000669909	-0.000303698	-8.70E-05	8.70E-05	-0.000121403	-4.48E-06
264	0.000175619	0.000136805	0.000668716	-0.000290966	-7.66E-05	9.77E-05	-0.000108719	7.53E-06
265	0.000160742	0.000127935	0.000660324	-0.000308561	-9.39E-05	8.17E-05	-0.000124168	-4.43E-06
266	0.000142717	0.00011816	0.000649405	-0.000328636	-0.000111055	6.48E-05	-0.000140762	-1.60E-05
267	0.000129032	0.000120735	0.000652361	-0.00034194	-0.000121975	5.16E-05	-0.000153923	-2.65E-05
268	0.000165224	0.000140667	0.000673723	-0.000301027	-8.50E-05	8.94E-05	-0.00011797	-1.34E-06
269	0.000190973	0.000154924	0.000689888	-0.000274658	-5.87E-05	0.000116539	-8.92E-05	1.94E-05
270	0.000190926	0.000160265	0.000700998	-0.000275183	-5.58E-05	0.000119781	-8.54E-05	1.66E-05
271	0.000188541	0.000163364	0.000710058	-0.000279045	-5.36E-05	0.000120783	-8.42E-05	1.80E-05
272	0.00019021	0.000178385	0.000734377	-0.000274467	-4.27E-05	0.000130081	-7.49E-05	1.81E-05
273	0.000238419	0.000207138	0.000770712	-0.000222778	8.15E-06	0.000182772	-2.46E-05	5.18E-05
274	0.0002635	0.000217962	0.000787258	-0.000194454	3.27E-05	0.000209236	1.24E-06	7.11E-05
275	0.000257778	0.000218105	0.000790501	-0.000201654	2.96E-05	0.000205326	-1.10E-06	6.85E-05
276	0.000248575	0.000219822	0.000790405	-0.000214338	2.26E-05	0.000196791	-7.25E-06	6.38E-05
277	0.000240993	0.000222969	0.000797701	-0.000221586	1.79E-05	0.000191259	-1.32E-05	5.36E-05
278	0.000276136	0.000239182	0.000816917	-0.00018177	5.44E-05	0.000227308	2.00E-05	7.93E-05
279	0.000285006	0.000239658	0.000813866	-0.000172138	5.96E-05	0.000234318	2.73E-05	8.84E-05
280	0.000261831	0.000224352	0.00079565	-0.000197649	3.45E-05	0.000209522	3.96E-06	7.05E-05
281	0.000235415	0.000204372	0.000771999	-0.000225782	7.30E-06	0.000181437	-2.30E-05	5.32E-05
282	0.000210142	0.000195312	0.000759792	-0.000254488	-1.82E-05	0.000154781	-5.11E-05	3.25E-05
283	0.000229788	0.000197887	0.000759411	-0.00023222	-6.68E-07	0.000172186	-3.45E-05	4.47E-05
284	0.000229549	0.000187111	0.000740767	-0.000233221	-1.02E-05	0.000164557	-4.14E-05	4.62E-05
285	0.000198793	0.000165319	0.000710535	-0.000267124	-4.68E-05	0.000129128	-7.76E-05	2.26E-05
286	0.000167799	0.000143242	0.000679827	-0.000302887	-7.99E-05	9.40E-05	-0.000111151	1.86E-06
287	0.000138664	0.000128746	0.000662184	-0.000332785	-0.000111151	6.28E-05	-0.00014348	-2.08E-05
288	0.000161982	0.00013485	0.000670862	-0.000303364	-8.92E-05	8.59E-05	-0.000121927	-4.58E-06
289	0.000176287	0.00013628	0.000670147	-0.000289154	-7.85E-05	9.82E-05	-0.00010972	6.34E-06
290	0.000160599	0.000128555	0.000660992	-0.000307608	-9.49E-05	8.12E-05	-0.000124741	-4.72E-06
291	0.00014472	0.000118828	0.0006495	-0.00032692	-0.0001091	6.53E-05	-0.000140476	-1.62E-05
292	0.000129318	0.00011878	0.000651598	-0.000342178	-0.000121641	5.07E-05	-0.000154448	-2.85E-05
293	0.00016036	0.000135803	0.000669718	-0.000305986	-8.98E-05	8.27E-05	-0.000123596	-5.01E-06
294	0.000175381	0.000137329	0.000670624	-0.000290108	-7.82E-05	9.73E-05	-0.000109529	7.25E-06
295	0.000160694	0.000127506	0.000660849	-0.000306702	-9.36E-05	8.24E-05	-0.000124264	-3.81E-06
296	0.000145626	0.000119114	0.000650835	-0.000324678	-0.000108099	6.62E-05	-0.000138807	-1.44E-05
297	0.000128794	0.000118542	0.000651455	-0.000341654	-0.000122833	5.06E-05	-0.000154209	-3.03E-05
298	0.000159645	0.000133657	0.000669003	-0.000306749	-9.11E-05	8.26E-05	-0.000123978	-7.92E-06
299	0.000176001	0.000136185	0.000670099	-0.000289965	-7.77E-05	9.72E-05	-0.000109386	5.58E-06
300	0.000161314	0.000127649	0.000660801	-0.000307655	-9.27E-05	8.23E-05	-0.000123072	-5.53E-06
301	0.000146675	0.000119352	0.000650167	-0.000325823	-0.000106478	6.56E-05	-0.000138712	-1.44E-05
302	0.000129175	0.000119209	0.000650883	-0.00034256	-0.00012188	4.97E-05	-0.000155783	-2.88E-05
303	0.000158358	0.000134516	0.000669384	-0.000308943	-9.24E-05	8.01E-05	-0.000126076	-7.58E-06
304	0.000175381	0.000136232	0.000670576	-0.000290966	-7.75E-05	9.69E-05	-0.000109148	6.10E-06
305	0.000159836	0.000128174	0.000661659	-0.000305939	-9.37E-05	8.23E-05	-0.000123358	-4.96E-06
306	0.000144863	0.000118446	0.000649118	-0.000324726	-0.000109005	6.68E-05	-0.000138474	-1.40E-05
307	0.00011282	0.000109339	0.000634098	-0.000347185	-0.00013814	4.40E-05	-0.000171137	-2.88E-05
308	0.00010004	8.44E-05	0.000613165	-0.000342321	-0.000148153	3.48E-05	-0.000183725	-1.98E-05
309	6.77E-05	2.85E-05	0.000560808	-0.000354481	-0.00017066	-5.15E-06	-0.000213718	-1.12E-05
310	2.22E-05	-1.13E-05	0.00052104	-0.000354242	-0.000145721	-2.02E-05	-0.000257349	6.48E-06
311	5.58E-05	2.47E-05	0.00055871	-0.000267887	1.31E-05	8.33E-05	-0.000217056	6.76E-05
312	0.000177193	0.000140333	0.000697041	-0.000143147	0.000283861	0.000325251	-6.24E-05	0.000125885
313	0.000414658	0.000322247	0.000922632	3.96E-05	0.000599003	0.000675774	0.000232887	0.000205755
314	0.00068059	0.000513506	0.00117388	0.000183916	0.000893164	0.00104218	0.000549603	0.000263596
315	0.000922155	0.000694561	0.00142016	0.000217772	0.0010859	0.00134664	0.000856543	0.000255775
316	0.00109868	0.000827503	0.00160031	6.79E-05	0.00101376	0.00142469	0.00103974	0.000144577
317	0.00109477	0.000834465	0.00161338	-0.000254488	0.000623131	0.00120749	0.000973797	-7.94E-05
318	0.000976944	0.000738144	0.00148387	-0.000643682	0.000132608	0.00089612	0.000781822	-0.000317001
319	0.00077405	0.000578213	0.00126505	-0.00107875	-0.00038271	0.000521612	0.000518322	-0.000541735
320	0.000513983	0.000391865	0.00101137	-0.00139446	-0.000788689	0.000150204	0.000179005	-0.000711584
321	0.000269127	0.000215101	0.000769901	-0.00141129	-0.000866747	-0.000129747	-7.25E-05	-0.000694084
322	0.000123167	0.000117254	0.000641251	-0.00120564	-0.000727463	-0.00023241	-0.000216246	-0.000540018
323	9.05E-05	8.06E-05	0.000601482	-0.000888872	-0.0004807	-0.000170803	-0.000229979	-0.000336313
324	9.34E-05	5.94E-05	0.000588799	-0.000619841	-0.000285959	-6.66E-05	-0.000212002	-0.000168037
325	9.79E-05	7.27E-05	0.00059824	-0.000464249	-0.000192928	-3.96E-06	-0.000196743	-8.59E-05
326	0.000122356	0.000105286	0.000625277	-0.000379562	-0.000143051	3.27E-05	-0.000170565	-3.65E-05
327	0.000122595	0.000117636	0.00064435	-0.000352192	-0.000129271	4.23E-05	-0.000162935	-3.09E-05
328	0.000154161	0.000133991	0.000667763	-0.000311327	-9.50E-05	7.80E-05	-0.000128603	-8.01E-06
329	0.000174952	0.000137711	0.000670481	-0.000290728	-7.77E-05	9.79E-05	-0.000109529	6.20E-06
330	0.000160837	0.000129509	0.000661135	-0.000306559	-9.15E-05	8.38E-05	-0.000122881	-1.86E-06
331	0.000148296	0.000120831	0.000650358	-0.00032258	-0.000103807	6.93E-05	-0.000135279	-1.08E-05
332	0.000129604	0.000118208	0.000649834	-0.000342321	-0.000121212	5.11E-05	-0.000154591	-2.63E-05
333	0.000155354	0.000134468	0.000667429	-0.000312042	-9.50E-05	7.87E-05	-0.000127888	-7.34E-06
334	0.000175667	0.000138378	0.000671053	-0.000291061	-7.72E-05	9.69E-05	-0.000109005	7.77E-06
335	0.000163269	0.000130463	0.000661755	-0.000305891	-9.13E-05	8.23E-05	-0.000122404	-2.77E-06
336	0.000149298	0.000121593	0.000652409	-0.000321531	-0.000102806	6.84E-05	-0.000135136	-9.73E-06
337	0.000128984	0.000118065	0.000652027	-0.000342894	-0.000120544	4.87E-05	-0.000153971	-2.65E-05
338	0.0001544	0.000132704	0.000668049	-0.000312853	-9.50E-05	7.64E-05	-0.000127983	-9.58E-06
339	0.000174761	0.000137615	0.000670099	-0.00029192	-7.89E-05	9.68E-05	-0.000109673	7.10E-06
340	0.000162649	0.00013051	0.000661325	-0.000306559	-9.21E-05	8.41E-05	-0.000122881	-3.43E-06
341	0.000149918	0.000120544	0.000651979	-0.000322056	-0.000103951	7.09E-05	-0.000134659	-1.17E-05
342	0.000129509	0.000118303	0.000650215	-0.000341606	-0.000121307	5.12E-05	-0.000154066	-2.75E-05
343	0.00015564	0.000132895	0.000667715	-0.000311184	-9.50E-05	7.80E-05	-0.000128555	-8.63E-06
344	0.000174236	0.000137043	0.000670862	-0.0002913	-7.74E-05	9.66E-05	-0.000110006	7.06E-06
345	0.000162029	0.0001297	0.000661612	-0.000305843	-9.10E-05	8.36E-05	-0.000122547	-2.34E-06
346	0.000150108	0.000121546	0.000652122	-0.000321245	-0.000102758	7.07E-05	-0.000134897	-1.16E-05
347	0.000128126	0.000118732	0.000651407	-0.000344229	-0.000121975	5.06E-05	-0.000155926	-2.78E-05
348	0.00015378	0.000132561	0.000668192	-0.000314474	-9.64E-05	7.76E-05	-0.000130701	-1.03E-05
349	0.000175142	0.000136852	0.000671434	-0.000291491	-7.84E-05	9.62E-05	-0.000110912	5.96E-06
350	0.000162029	0.00012846	0.00066247	-0.000306368	-9.15E-05	8.24E-05	-0.000122643	-3.05E-06
351	0.000151157	0.000120449	0.000652981	-0.000320816	-0.000102949	7.10E-05	-0.000133801	-1.13E-05
352	0.000128508	0.000118303	0.000650167	-0.000343084	-0.00012207	5.12E-05	-0.000153923	-2.82E-05
353	0.000154638	0.000132418	0.000667334	-0.000313807	-9.68E-05	7.76E-05	-0.000128984	-8.68E-06
354	0.000174332	0.000137949	0.000670433	-0.000291157	-7.79E-05	9.71E-05	-0.000109482	6.15E-06
355	0.000162792	0.000130367	0.00066247	-0.000305033	-9.16E-05	8.43E-05	-0.000122166	-1.62E-06
356	0.000150967	0.00012188	0.000654268	-0.000317812	-0.000100517	7.35E-05	-0.000133371	-8.77E-06
357	0.000137043	0.000127888	0.000660658	-0.000327682	-9.71E-05	7.25E-05	-0.000143242	-2.27E-05
358	0.000175047	0.000157261	0.000693226	-0.000280905	-3.66E-05	0.000126743	-9.99E-05	4.63E-06
359	0.00020895	0.000176716	0.000715828	-0.00023942	1.68E-05	0.00017767	-6.01E-05	2.95E-05
360	0.000212145	0.000181627	0.000723982	-0.000232029	4.17E-05	0.00019536	-5.17E-05	3.01E-05
361	0.000215006	0.000190639	0.000735617	-0.000224066	7.06E-05	0.000216579	-4.30E-05	3.21E-05
362	0.000211763	0.000202703	0.000752783	-0.000224161	9.11E-05	0.000228071	-4.46E-05	2.59E-05
363	0.000250816	0.00023036	0.000786591	-0.000174952	0.00015502	0.000285006	-1.43E-07	5.47E-05
364	0.000288057	0.000251675	0.00081234	-0.000130606	0.000214767	0.00033946	4.16E-05	8.28E-05
365	0.000291395	0.000259542	0.000823069	-0.000121927	0.000237846	0.000357533	5.04E-05	8.23E-05
366	0.000293207	0.000262976	0.000829601	-0.00011673	0.000263691	0.000376701	5.76E-05	8.39E-05
367	0.00028491	0.000274181	0.000843906	-0.000121784	0.000278759	0.000385618	5.53E-05	7.44E-05
368	0.000322008	0.000303411	0.000877523	-7.59E-05	0.000336266	0.000437927	9.54E-05	0.000100565
369	0.000357056	0.000320148	0.000895548	-3.30E-05	0.00038662	0.000485325	0.00013237	0.000126553
370	0.000353479	0.000323725	0.000901604	-3.25E-05	0.00040102	0.000493813	0.000135756	0.000124168
371	0.000352192	0.000324059	0.000902367	-3.40E-05	0.000414324	0.000500154	0.000136566	0.000122261
372	0.000340605	0.000329113	0.000910854	-4.60E-05	0.000413704	0.000498581	0.000125456	0.000110388
373	0.000370216	0.000351858	0.000936127	-8.68E-06	0.000454283	0.000538397	0.000159073	0.000133038
374	0.000398588	0.000359058	0.000945473	2.27E-05	0.000487947	0.00057044	0.000186968	0.00015254
375	0.000388002	0.000354099	0.000940609	1.14E-05	0.000483465	0.000563526	0.000178576	0.000143194
376	0.000377226	0.000345898	0.000931787	-2.53E-06	0.000474358	0.000551271	0.000167799	0.000134993
377	0.000354195	0.000341845	0.00092845	-2.64E-05	0.000453377	0.000529385	0.000145817	0.000118923
378	0.000376081	0.00035491	0.000942421	-5.72E-07	0.000471163	0.000550508	0.000165987	0.000135326
379	0.000395584	0.00036006	0.000944424	1.96E-05	0.000480604	0.000564432	0.000184107	0.000151205
380	0.00037756	0.000347567	0.000930119	-3.81E-06	0.000454187	0.000539827	0.000163507	0.000137854
381	0.000357962	0.000328732	0.000909615	-2.75E-05	0.000425863	0.000509548	0.000142622	0.000126648
382	0.00032444	0.000317097	0.000894737	-6.36E-05	0.000381136	0.000468493	0.000109529	0.000101328
383	0.000338554	0.000319958	0.000899649	-5.03E-05	0.000379038	0.000473452	0.000118303	0.000112438
384	0.000349951	0.000314283	0.000890303	-4.29E-05	0.000371885	0.000470829	0.000125074	0.000122452
385	0.000325394	0.00029335	0.000865507	-7.55E-05	0.000327206	0.000432634	9.60E-05	0.000104141
386	0.000301409	0.00027113	0.000837851	-0.000106096	0.00028224	0.00039196	6.76E-05	8.93E-05
387	0.000263929	0.00025363	0.000817633	-0.000148535	0.000225067	0.000339651	2.75E-05	6.14E-05
388	0.000270748	0.000251961	0.000814915	-0.000144529	0.000211763	0.000331545	2.98E-05	6.71E-05
389	0.000281	0.000242901	0.000801229	-0.000140381	0.000194693	0.000322628	3.22E-05	7.62E-05
390	0.000253439	0.000221395	0.000773144	-0.000176525	0.000141525	0.000276566	-3.81E-07	5.68E-05
391	0.000226402	0.000200462	0.000745869	-0.000212002	9.17E-05	0.000233126	-3.11E-05	3.85E-05
392	0.000186634	0.00017767	0.000720549	-0.000259829	3.09E-05	0.00017767	-7.40E-05	1.04E-05
393	0.000193167	0.000176859	0.000719452	-0.000255299	1.47E-05	0.000168753	-7.33E-05	1.76E-05
394	0.000203562	0.000167704	0.00070591	-0.000250769	-1.29E-06	0.000160885	-6.99E-05	2.59E-05
395	0.000179434	0.000146627	0.000680208	-0.000281858	-5.05E-05	0.000119352	-0.000101185	7.20E-06
396	0.000157022	0.0001266	0.000657511	-0.000311995	-9.16E-05	8.25E-05	-0.000128078	-7.20E-06
397	0.000130701	0.000118494	0.000649309	-0.0003438	-0.000121021	5.03E-05	-0.000155258	-2.66E-05
398	0.000152826	0.000132227	0.000665665	-0.000318146	-9.83E-05	7.39E-05	-0.000132656	-1.17E-05
399	0.000176239	0.000137472	0.000671434	-0.000290918	-7.72E-05	9.69E-05	-0.000109959	7.30E-06
400	0.00016427	0.000131035	0.000662518	-0.000303364	-8.90E-05	8.59E-05	-0.000120735	-1.14E-06
401	0.000153637	0.000122499	0.000653696	-0.000317621	-0.000100565	7.31E-05	-0.000132132	-9.11E-06
402	0.00012908	0.000116634	0.000649929	-0.000343084	-0.000122166	4.96E-05	-0.000154972	-2.76E-05
403	0.000149775	0.000130987	0.00066576	-0.000317192	-9.89E-05	7.31E-05	-0.000132751	-1.24E-05
404	0.000173998	0.000137758	0.000673342	-0.0002913	-7.75E-05	9.69E-05	-0.000109911	6.77E-06
405	0.000163126	0.000131702	0.000664186	-0.000304413	-8.91E-05	8.42E-05	-0.000121927	-2.34E-06
406	0.000152493	0.000122404	0.000653696	-0.000318241	-0.00010047	7.21E-05	-0.000132561	-8.87E-06
407	0.000129032	0.000117111	0.000649023	-0.000343275	-0.000121069	4.96E-05	-0.00015521	-2.75E-05
408	0.000150108	0.000130939	0.00066576	-0.000317478	-9.84E-05	7.17E-05	-0.000132751	-1.20E-05
409	0.000175047	0.000136662	0.000671816	-0.000290155	-7.67E-05	9.64E-05	-0.000109863	7.10E-06
410	0.000164461	0.000129843	0.000663567	-0.000302649	-8.97E-05	8.45E-05	-0.000120163	-4.77E-07
411	0.000152826	0.000122023	0.000654173	-0.000317526	-9.99E-05	7.21E-05	-0.000130939	-8.73E-06
412	0.000128555	0.000117302	0.000649261	-0.00034256	-0.000121355	4.93E-05	-0.000155401	-2.76E-05
413	0.000149298	0.000130558	0.000666189	-0.000317907	-9.86E-05	7.26E-05	-0.000133991	-1.35E-05
414	0.000173759	0.000137424	0.000671673	-0.000290585	-7.57E-05	9.68E-05	-0.000108767	6.48E-06
415	0.000162029	0.000131178	0.000663137	-0.000303841	-8.90E-05	8.47E-05	-0.000120544	-2.62E-06
416	0.000151682	0.000122738	0.000653696	-0.000317144	-0.000100756	7.29E-05	-0.000130987	-9.11E-06
417	0.000128269	0.000115919	0.000649261	-0.000342178	-0.000122356	5.01E-05	-0.000154114	-2.76E-05
418	0.000148726	0.000129652	0.000665617	-0.000317907	-0.000101185	7.12E-05	-0.000133371	-1.28E-05
419	0.000173759	0.000137424	0.000672197	-0.000291204	-7.75E-05	9.57E-05	-0.000109673	5.96E-06
420	0.000162888	0.000131178	0.000662947	-0.000303555	-8.99E-05	8.53E-05	-0.000121117	-1.62E-06
421	0.000151825	0.000122499	0.000653505	-0.000317574	-0.000101185	7.30E-05	-0.000132656	-8.96E-06
422	0.000127888	0.000116634	0.000649786	-0.000342369	-0.000122976	4.97E-05	-0.000155497	-2.77E-05
423	0.000148392	0.000131321	0.000665617	-0.000319624	-0.000101566	7.18E-05	-0.000134563	-1.36E-05
424	0.000174904	0.000137854	0.00067277	-0.000291634	-7.77E-05	9.84E-05	-0.000109148	6.91E-06
425	0.000163937	0.000130987	0.000664902	-0.000304556	-8.91E-05	8.54E-05	-0.000119638	-1.72E-06
426	0.000153351	0.000122929	0.000655365	-0.000317287	-9.98E-05	7.29E-05	-0.000130844	-8.77E-06
427	0.000129271	0.000116873	0.000649595	-0.000342703	-0.000122356	4.95E-05	-0.000154591	-2.81E-05
428	0.000149107	0.00013051	0.000665379	-0.000318813	-0.000101376	7.18E-05	-0.000134134	-1.30E-05
429	0.000174236	0.000138712	0.000671625	-0.000291681	-7.81E-05	9.63E-05	-0.000109863	5.20E-06
430	0.000163746	0.00013051	0.000664282	-0.0003057	-9.03E-05	8.49E-05	-0.000120735	-1.62E-06
431	0.000153494	0.000123072	0.000654602	-0.00031805	-9.96E-05	7.48E-05	-0.000130892	-7.72E-06
432	0.000129557	0.000117731	0.000649643	-0.000342846	-0.000121355	5.05E-05	-0.000154829	-2.81E-05
433	0.000148821	0.000130796	0.000664663	-0.000318575	-0.000102186	7.12E-05	-0.000135469	-1.48E-05
434	0.00017519	0.000137997	0.000671768	-0.000291204	-7.82E-05	9.68E-05	-0.00011034	5.82E-06
435	0.000164652	0.000130224	0.00066433	-0.000304079	-9.00E-05	8.55E-05	-0.000121307	-2.00E-06
436	0.000154209	0.000122023	0.000655031	-0.000316858	-9.98E-05	7.41E-05	-0.000131226	-8.87E-06
437	0.000129795	0.000115776	0.000649929	-0.000340891	-0.000120831	5.14E-05	-0.000153208	-2.75E-05
438	0.0001472	0.000129128	0.000665426	-0.000319624	-0.000101614	7.16E-05	-0.000135422	-1.41E-05
439	0.000173569	0.000138092	0.000671768	-0.000291538	-7.87E-05	9.65E-05	-0.000111341	5.44E-06
440	0.000164652	0.000131369	0.00066371	-0.000304127	-9.02E-05	8.44E-05	-0.000120878	-2.57E-06
441	0.000154781	0.000123549	0.000655699	-0.000316477	-9.96E-05	7.41E-05	-0.000129986	-8.92E-06
442	0.000128651	0.000116777	0.000648642	-0.000342321	-0.000121641	5.00E-05	-0.000154686	-2.75E-05
443	0.000148249	0.000130415	0.00066371	-0.000320053	-0.000101519	7.02E-05	-0.000136375	-1.56E-05
444	0.000175667	0.000137377	0.000673103	-0.000291634	-7.64E-05	9.72E-05	-0.000110531	6.25E-06
445	0.00016613	0.00013032	0.000664711	-0.00030365	-8.73E-05	8.68E-05	-0.000120258	-1.05E-06
446	0.000155449	0.000123501	0.000654697	-0.000317001	-9.92E-05	7.45E-05	-0.000129986	-9.11E-06
447	0.000130796	0.000116348	0.000648212	-0.000343084	-0.000120449	5.08E-05	-0.000154305	-2.77E-05
448	0.000147867	0.000130081	0.000664043	-0.000321484	-0.000102329	7.12E-05	-0.000136805	-1.31E-05
449	0.000174475	0.000138474	0.000672626	-0.000291586	-7.86E-05	9.76E-05	-0.00011034	6.87E-06
450	0.000164223	0.000131845	0.000665045	-0.000303125	-8.90E-05	8.68E-05	-0.000119352	-5.72E-07
451	0.000154018	0.000123549	0.00065465	-0.000315952	-9.84E-05	7.53E-05	-0.000130367	-7.68E-06
452	0.000129318	0.000116873	0.000649118	-0.000342798	-0.000121737	5.14E-05	-0.000154495	-2.69E-05
453	0.000146675	0.000128841	0.000663948	-0.000321198	-0.000103331	6.99E-05	-0.000136852	-1.54E-05
454	0.000174427	0.000138044	0.000671482	-0.000290585	-7.76E-05	9.84E-05	-0.000109816	5.77E-06
455	0.000164413	0.000130939	0.000663137	-0.000303125	-8.84E-05	8.69E-05	-0.000119925	-1.57E-06
456	0.000154686	0.000123549	0.000655222	-0.000316429	-9.84E-05	7.47E-05	-0.000130129	-7.96E-06
457	0.000129414	0.000117636	0.000649118	-0.000342703	-0.000121164	5.07E-05	-0.000154829	-2.78E-05
458	0.00015049	0.000134706	0.000668764	-0.000317144	-9.75E-05	7.38E-05	-0.000132322	-1.22E-05
459	0.000190783	0.00015564	0.000692272	-0.000274754	-5.61E-05	0.00011692	-9.03E-05	1.88E-05
460	0.000197649	0.000161362	0.000704384	-0.000269365	-4.97E-05	0.000124264	-8.13E-05	2.16E-05
461	0.000202131	0.000167036	0.000716257	-0.000265837	-4.07E-05	0.000130844	-7.21E-05	2.79E-05
462	0.000191689	0.00017457	0.000729036	-0.000275373	-4.15E-05	0.00012846	-7.51E-05	1.94E-05
463	0.000222349	0.000200462	0.000763655	-0.000241137	-7.20E-06	0.000164986	-4.04E-05	4.09E-05
464	0.000260639	0.000219727	0.000789642	-0.000195789	3.26E-05	0.000206709	8.58E-07	7.16E-05
465	0.000262594	0.000222397	0.000794601	-0.000195932	3.61E-05	0.000209808	4.01E-06	7.14E-05
466	0.000260592	0.000224638	0.000796223	-0.000201702	3.52E-05	0.00020771	3.15E-06	7.24E-05
467	0.000243282	0.000219774	0.000794554	-0.000220633	1.83E-05	0.000190496	-1.38E-05	5.65E-05
468	0.000259829	0.000231552	0.000811386	-0.00019927	3.94E-05	0.000211287	5.48E-06	6.93E-05
469	0.000282478	0.000239182	0.00081687	-0.000174284	5.85E-05	0.000231457	2.56E-05	8.76E-05
470	0.000267124	0.00022707	0.000800514	-0.000192451	3.94E-05	0.000213718	8.58E-06	7.49E-05
471	0.000246954	0.000208569	0.00077734	-0.000213623	1.87E-05	0.000192928	-1.22E-05	6.05E-05
472	0.000212097	0.000192022	0.000755501	-0.000253534	-1.82E-05	0.000154686	-5.02E-05	3.32E-05
473	0.000215197	0.000192213	0.000753069	-0.000248528	-1.61E-05	0.000156069	-4.90E-05	3.38E-05
474	0.000228596	0.000188017	0.00074234	-0.000233936	-1.04E-05	0.000163364	-4.33E-05	4.56E-05
475	0.000203276	0.000168276	0.000713921	-0.000262785	-4.12E-05	0.000132513	-7.31E-05	2.65E-05
476	0.000177765	0.000147057	0.000684166	-0.000291634	-6.97E-05	0.000102854	-0.000101137	8.63E-06
477	0.000140285	0.000125837	0.000658655	-0.000332642	-0.000109482	6.16E-05	-0.000142384	-2.01E-05
478	0.000147009	0.000129557	0.000663805	-0.000322151	-0.000102472	6.94E-05	-0.000136566	-1.54E-05
479	0.000174236	0.000137711	0.00067296	-0.000291538	-7.73E-05	9.67E-05	-0.000110102	7.06E-06
480	0.000165224	0.000130939	0.00066452	-0.000302172	-8.76E-05	8.67E-05	-0.000119209	9.06E-07
481	0.000154161	0.000123024	0.00065527	-0.00031476	-9.86E-05	7.59E-05	-0.000130367	-7.34E-06
482	0.000129843	0.000117445	0.000648689	-0.000342798	-0.00012207	5.15E-05	-0.000154734	-2.66E-05
483	0.000144434	0.000129843	0.000663948	-0.000323248	-0.000104856	6.85E-05	-0.00013957	-1.60E-05
484	0.000172424	0.000139189	0.000672388	-0.000292444	-7.85E-05	9.66E-05	-0.000111675	4.77E-06
485	0.000165033	0.000131989	0.000664759	-0.000302839	-8.95E-05	8.75E-05	-0.000120163	-1.00E-06
486	0.000155163	0.000123549	0.000655413	-0.000315523	-9.98E-05	7.56E-05	-0.000129986	-6.72E-06
487	0.000129128	0.000116491	0.000647545	-0.000342894	-0.000121546	5.13E-05	-0.000154448	-2.69E-05
488	0.000145054	0.000128174	0.0006639	-0.000324392	-0.000105	6.82E-05	-0.000138617	-1.77E-05
489	0.000175285	0.000137138	0.000672483	-0.000292587	-7.81E-05	9.63E-05	-0.000111055	4.53E-06
490	0.000166225	0.00013175	0.000663662	-0.00030303	-8.75E-05	8.75E-05	-0.000120211	-1.14E-06
491	0.000155401	0.000124121	0.000654984	-0.000314999	-9.75E-05	7.64E-05	-0.00012989	-7.53E-06
492	0.000130701	0.000116777	0.000648308	-0.000341415	-0.000120497	5.08E-05	-0.000153303	-2.57E-05
493	0.000145102	0.000128555	0.000663805	-0.000323772	-0.00010438	6.69E-05	-0.000139046	-1.61E-05
494	0.000174093	0.000138426	0.000672722	-0.000292015	-7.71E-05	9.64E-05	-0.000110912	5.34E-06
495	0.000165796	0.000131893	0.000664759	-0.000302601	-8.75E-05	8.68E-05	-0.000118113	4.77E-08
496	0.000153255	0.00012269	0.000653887	-0.000314903	-9.93E-05	7.50E-05	-0.000130129	-8.39E-06
497	0.00011344	0.000106049	0.000631857	-0.000346661	-0.000135946	4.43E-05	-0.000169277	-2.83E-05
498	8.68E-05	7.81E-05	0.000607204	-0.000357533	-0.000160408	2.14E-05	-0.000197697	-2.99E-05
499	6.49E-05	2.96E-05	0.000563431	-0.000356054	-0.000171709	-6.01E-06	-0.000216436	-1.44E-05
500	2.52E-05	-7.58E-06	0.000526047	-0.0003479	-0.000140953	-1.66E-05	-0.000252724	9.25E-06
501	6.37E-05	3.02E-05	0.000563526	-0.000259066	2.25E-05	9.10E-05	-0.000207567	7.52E-05
502	0.0001791	0.000137234	0.00069313	-0.000143623	0.000283289	0.00032444	-6.22E-05	0.000128174
503	0.000397253	0.000314093	0.000916624	2.32E-05	0.000583935	0.000660324	0.000217724	0.000193548
504	0.000675869	0.000513172	0.00117664	0.000181246	0.000890779	0.00103869	0.000545311	0.00026083
505	0.000926399	0.000695276	0.00142207	0.000222492	0.00109043	0.00135026	0.000858355	0.00025959
506	0.00110726	0.000829363	0.00160446	7.93E-05	0.00102463	0.00143528	0.0010469	0.000150919
507	0.0010972	0.000833416	0.00161152	-0.000249481	0.000627995	0.00121107	0.000976467	-7.53E-05
508	0.000963259	0.000734043	0.00147963	-0.00065546	0.000123692	0.000885296	0.000769997	-0.000324821
509	0.000772381	0.000579882	0.00126772	-0.00107913	-0.000380659	0.000522089	0.000517273	-0.000541878
510	0.000519419	0.000394964	0.00101728	-0.00138841	-0.000782347	0.000156403	0.000184107	-0.00070734
511	0.00027771	0.000220585	0.000776958	-0.001403	-0.000859547	-0.000120497	-6.46E-05	-0.000687647
512	0.000126219	0.000115538	0.000640774	-0.00120683	-0.000726318	-0.000230837	-0.00021472	-0.000539255
513	7.74E-05	7.49E-05	0.000596714	-0.000905609	-0.000494862	-0.00018487	-0.000242043	-0.00034771
514	9.15E-05	6.04E-05	0.000590849	-0.000624132	-0.000288057	-6.83E-05	-0.000211048	-0.000170088
515	0.000103235	7.49E-05	0.000602055	-0.000459337	-0.000187731	1.96E-06	-0.000192928	-8.35E-05
516	0.000129128	0.000107193	0.000630331	-0.000371695	-0.00013504	4.14E-05	-0.0001647	-3.30E-05
517	0.000125313	0.000114202	0.000641823	-0.000351477	-0.000128174	4.51E-05	-0.000161219	-2.90E-05
518	0.000141668	0.000128174	0.000661802	-0.000326347	-0.000107861	6.55E-05	-0.000141573	-1.81E-05
519	0.000172424	0.000137854	0.000672626	-0.000292921	-7.96E-05	9.59E-05	-0.000110626	6.34E-06
520	0.000166464	0.000131083	0.000665379	-0.000299311	-8.60E-05	8.88E-05	-0.000117588	9.06E-07
521	0.000156736	0.000125027	0.00065589	-0.000313616	-9.71E-05	7.68E-05	-0.00012908	-7.44E-06
522	0.000132227	0.000116634	0.000647449	-0.000341129	-0.000120115	5.18E-05	-0.000153542	-2.61E-05
523	0.000142956	0.000127268	0.000661421	-0.000326347	-0.000106382	6.60E-05	-0.000141525	-1.77E-05
524	0.00017271	0.000137281	0.000672054	-0.000293159	-7.92E-05	9.52E-05	-0.000112104	5.63E-06
525	0.000165844	0.000131655	0.000664663	-0.00030098	-8.75E-05	8.74E-05	-0.000118542	-9.54E-08
526	0.00015564	0.000124025	0.000657034	-0.000313616	-9.57E-05	7.75E-05	-0.000127649	-6.29E-06
527	0.000132942	0.000115633	0.000648642	-0.000339985	-0.000119638	5.20E-05	-0.00015192	-2.54E-05
528	0.000143194	0.000126982	0.000662041	-0.000326014	-0.000107336	6.43E-05	-0.000141096	-1.96E-05
529	0.000171852	0.000137758	0.000672245	-0.000292635	-7.84E-05	9.47E-05	-0.000111675	3.15E-06
530	0.000166178	0.000132561	0.000665379	-0.000300121	-8.71E-05	8.83E-05	-0.00011754	-9.54E-08
531	0.000156307	0.000124788	0.000656366	-0.000313473	-9.77E-05	7.68E-05	-0.000128508	-7.01E-06
532	0.000131941	0.00011673	0.000647831	-0.000339031	-0.000118971	5.28E-05	-0.000151825	-2.50E-05
533	0.000142384	0.000126743	0.00066061	-0.000325441	-0.000107193	6.49E-05	-0.000140858	-1.92E-05
534	0.000172234	0.000137043	0.000672531	-0.00029335	-7.88E-05	9.49E-05	-0.000111866	4.01E-06
535	0.000166464	0.000131464	0.000666428	-0.000300455	-8.59E-05	8.85E-05	-0.000118303	0
536	0.000155497	0.000125217	0.000657368	-0.000313187	-9.61E-05	7.75E-05	-0.000127745	-6.91E-06
537	0.000130463	0.000116539	0.000649023	-0.00034008	-0.000119877	5.25E-05	-0.000152016	-2.48E-05
538	0.000141668	0.000126791	0.000661898	-0.000327587	-0.000108051	6.45E-05	-0.000141859	-1.86E-05
539	0.000172138	0.000137091	0.000672436	-0.000293112	-7.94E-05	9.55E-05	-0.000112677	3.48E-06
540	0.000166368	0.000132465	0.000666809	-0.000300741	-8.64E-05	8.83E-05	-0.000118303	-1.91E-07
541	0.000156355	0.000125074	0.000656891	-0.000313377	-9.57E-05	7.71E-05	-0.000128269	-5.77E-06
542	0.000131893	0.000116682	0.000649261	-0.000339222	-0.000119781	5.31E-05	-0.000152349	-2.41E-05
543	0.000140715	0.000127459	0.000662088	-0.000326443	-0.0001091	6.44E-05	-0.000142431	-1.85E-05
544	0.000172091	0.000137424	0.000673056	-0.000294209	-8.03E-05	9.60E-05	-0.00011282	5.15E-06
545	0.000166416	0.000131178	0.000664663	-0.000300598	-8.76E-05	8.82E-05	-0.000119495	1.43E-06
546	0.000157213	0.000125265	0.0006567	-0.000311089	-9.33E-05	7.98E-05	-0.000126457	-4.86E-06
547	0.000141907	0.000126171	0.000657701	-0.000323677	-9.34E-05	7.49E-05	-0.000139284	-1.88E-05
548	0.000162792	0.000151873	0.000686693	-0.000295353	-4.87E-05	0.000113964	-0.000112867	-4.48E-06
549	0.000208187	0.000176382	0.0007164	-0.000242996	1.59E-05	0.000175858	-6.33E-05	2.83E-05
550	0.000217819	0.00018568	0.000727463	-0.000227833	4.83E-05	0.000199986	-4.82E-05	3.46E-05
551	0.000223827	0.000195694	0.000739002	-0.000217581	7.72E-05	0.000223541	-3.68E-05	3.75E-05
552	0.000215721	0.000202847	0.000750828	-0.000221205	9.37E-05	0.000231504	-4.12E-05	2.97E-05
553	0.000239992	0.000225592	0.000781059	-0.000187159	0.00014348	0.000273418	-1.24E-05	4.55E-05
554	0.000286055	0.000252438	0.000811625	-0.00013237	0.000212193	0.000337172	3.81E-05	7.91E-05
555	0.000295115	0.000262022	0.000824499	-0.000116014	0.000241566	0.000361729	5.37E-05	8.52E-05
556	0.000299644	0.000268269	0.000834608	-0.000107622	0.000270224	0.0003829	6.32E-05	8.89E-05
557	0.000288582	0.00027523	0.000842667	-0.000115681	0.00028367	0.000389385	5.77E-05	7.88E-05
558	0.000308561	0.000298691	0.000871706	-8.75E-05	0.000325584	0.000425625	8.27E-05	9.28E-05
559	0.000353003	0.000321817	0.000897932	-3.67E-05	0.000384331	0.000481844	0.000128555	0.000124121
560	0.000357771	0.000326633	0.000904703	-2.68E-05	0.000405216	0.000497389	0.000137949	0.000125885
561	0.000358534	0.000328302	0.000907564	-2.62E-05	0.000419426	0.000505495	0.000142431	0.000125408
562	0.000345039	0.000329065	0.000910091	-4.12E-05	0.000419855	0.000502729	0.000128174	0.000114298
563	0.000357437	0.000346708	0.000931358	-2.09E-05	0.000444221	0.000526094	0.000144911	0.000123167
564	0.000394487	0.000358868	0.000947046	1.91E-05	0.000485373	0.000566387	0.00018239	0.000149202
565	0.000391626	0.000355291	0.000943327	1.47E-05	0.000486803	0.000565958	0.000181389	0.000144672
566	0.000382042	0.000348377	0.000934839	4.15E-06	0.000479317	0.000556278	0.000172234	0.000138903
567	0.000359488	0.000339794	0.00092597	-2.10E-05	0.000457573	0.000532913	0.000150156	0.000121975
568	0.000365925	0.000349045	0.000936556	-1.35E-05	0.000461006	0.000539541	0.000155258	0.000126171
569	0.000391483	0.000358772	0.000944901	1.53E-05	0.000478315	0.000561857	0.000180197	0.000149441
570	0.000379515	0.000348234	0.000932217	1.00E-06	0.000457811	0.000543261	0.000165272	0.000141144
571	0.000361919	0.000331259	0.000912905	-2.03E-05	0.000430536	0.000516129	0.000146914	0.000129223
572	0.000329065	0.000315857	0.000893688	-5.76E-05	0.000386095	0.00047431	0.000112581	0.000104523
573	0.000327063	0.000315046	0.000893497	-6.28E-05	0.000368452	0.000463438	0.000106287	0.000103426
574	0.000346088	0.000314188	0.000889969	-4.73E-05	0.000368834	0.000467062	0.000120354	0.000119066
575	0.000328636	0.000296068	0.000866652	-7.20E-05	0.000330496	0.000435543	9.82E-05	0.000107002
576	0.0003057	0.000275087	0.000842333	-9.97E-05	0.000287533	0.00039854	7.19E-05	9.29E-05
577	0.000270367	0.000253677	0.000816727	-0.000143242	0.000229836	0.000345469	3.27E-05	6.60E-05
578	0.000261211	0.000248194	0.000810099	-0.00015564	0.000200939	0.000320959	1.80E-05	5.88E-05
579	0.000276375	0.000243807	0.000801706	-0.000143671	0.000191116	0.000319099	2.76E-05	7.26E-05
580	0.000255537	0.000224161	0.000775146	-0.000172806	0.000144291	0.000279856	1.48E-06	5.81E-05
581	0.000230694	0.000203323	0.000749779	-0.000205469	9.63E-05	0.000238609	-2.70E-05	4.24E-05
582	0.000193262	0.000178003	0.000719786	-0.000253105	3.55E-05	0.000183392	-6.93E-05	1.47E-05
583	0.000182915	0.000173187	0.000713778	-0.000266838	4.43E-06	0.000157976	-8.41E-05	8.87E-06
584	0.00019865	0.000169468	0.000706625	-0.00025425	-3.10E-06	0.00015893	-7.42E-05	2.27E-05
585	0.000181389	0.00015049	0.000682592	-0.000277805	-4.52E-05	0.000123835	-9.87E-05	9.25E-06
586	0.000160742	0.000129461	0.000660324	-0.000304794	-8.45E-05	8.85E-05	-0.000122833	-4.15E-06
587	0.00013442	0.00011692	0.000648451	-0.000336599	-0.000116396	5.59E-05	-0.000150013	-2.28E-05
588	0.000139332	0.000126266	0.000660229	-0.000328159	-0.000109386	6.32E-05	-0.000144768	-1.99E-05
589	0.000169802	0.000139093	0.00067215	-0.00029583	-8.17E-05	9.37E-05	-0.000114965	3.62E-06
590	0.000165796	0.000134659	0.000665998	-0.000300455	-8.64E-05	8.83E-05	-0.000118542	1.43E-07
591	0.00015521	0.000125885	0.000657988	-0.000311422	-9.60E-05	7.82E-05	-0.000127888	-5.77E-06
592	0.000133801	0.000117683	0.000648308	-0.000336933	-0.00011673	5.56E-05	-0.000148678	-2.26E-05
593	0.000139761	0.000126457	0.0006598	-0.000329542	-0.000109959	6.18E-05	-0.000143719	-2.06E-05
594	0.00017128	0.000137758	0.000671577	-0.00029521	-8.00E-05	9.26E-05	-0.000114059	4.24E-06
595	0.000167131	0.000132036	0.000666094	-0.000299549	-8.54E-05	8.91E-05	-0.00011797	1.86E-06
596	0.000156307	0.000125074	0.000657606	-0.000311184	-9.57E-05	7.86E-05	-0.000126886	-6.34E-06
597	0.000134516	0.000117588	0.000648928	-0.000335836	-0.000116444	5.64E-05	-0.000147867	-2.25E-05
598	0.000138426	0.000126028	0.000660753	-0.0003304	-0.000111961	6.22E-05	-0.000144053	-2.09E-05
599	0.000168705	0.000137377	0.00067215	-0.000295877	-8.21E-05	9.26E-05	-0.000113583	4.01E-06
600	0.000166178	0.000132513	0.000665665	-0.000300264	-8.63E-05	8.85E-05	-0.000118208	1.48E-06
601	0.000157452	0.000124836	0.00065856	-0.000313187	-9.58E-05	7.84E-05	-0.000126839	-5.96E-06
602	0.000135708	0.000117445	0.000649357	-0.00033679	-0.000116158	5.69E-05	-0.000149059	-2.16E-05
603	0.000138855	0.000125504	0.00065999	-0.000330687	-0.000110912	6.26E-05	-0.000145054	-2.06E-05
604	0.000170183	0.000136566	0.00067153	-0.000295496	-8.12E-05	9.33E-05	-0.000114489	3.72E-06
605	0.000167894	0.000132513	0.000666428	-0.000298452	-8.53E-05	8.97E-05	-0.00011692	3.05E-06
606	0.000157404	0.000126886	0.00065856	-0.000310659	-9.50E-05	7.88E-05	-0.000126171	-3.48E-06
607	0.000135136	0.000118065	0.000649261	-0.000335169	-0.000115919	5.55E-05	-0.00014801	-2.09E-05
608	0.000137758	0.000124645	0.000660133	-0.000330114	-0.000112104	6.12E-05	-0.000144863	-2.10E-05
609	0.000168848	0.000136328	0.000672483	-0.000295258	-8.14E-05	9.34E-05	-0.000114298	2.05E-06
610	0.000167322	0.000132847	0.000667286	-0.000298786	-8.52E-05	8.92E-05	-0.000117826	1.10E-06
611	0.000156927	0.000127029	0.000659037	-0.000311899	-9.66E-05	7.79E-05	-0.000127554	-5.67E-06
612	0.000135565	0.000118065	0.000650358	-0.000335646	-0.000115919	5.62E-05	-0.000148392	-2.05E-05
613	0.000137854	0.000125504	0.000660658	-0.000330734	-0.00011034	6.12E-05	-0.000146294	-1.98E-05
614	0.000169182	0.000137711	0.000672817	-0.00029664	-8.19E-05	9.19E-05	-0.000115919	3.53E-06
615	0.000167465	0.00013299	0.000666523	-0.000299454	-8.54E-05	8.90E-05	-0.000117874	8.58E-07
616	0.000158739	0.000126791	0.000658464	-0.000311899	-9.47E-05	7.85E-05	-0.000126696	-5.58E-06
617	0.000136042	0.000117826	0.000649357	-0.000336075	-0.000114298	5.58E-05	-0.000148392	-2.16E-05
618	0.000138521	0.000125694	0.000659275	-0.000331354	-0.000110626	5.99E-05	-0.000144958	-2.09E-05
619	0.000169659	0.000136948	0.000671959	-0.000296068	-8.05E-05	9.20E-05	-0.000114346	2.81E-06
620	0.000168514	0.00013237	0.000665855	-0.000297642	-8.40E-05	8.94E-05	-0.000117111	2.34E-06
621	0.000157785	0.000126934	0.00065856	-0.00031085	-9.61E-05	7.79E-05	-0.000128794	-5.77E-06
622	0.000137186	0.000117779	0.00064888	-0.000334597	-0.000116062	5.66E-05	-0.000149822	-2.29E-05
623	0.000138474	0.000124979	0.000659847	-0.000330734	-0.000111485	6.04E-05	-0.000145531	-2.22E-05
624	0.00016923	0.000137472	0.000672388	-0.000296688	-8.14E-05	9.23E-05	-0.000114727	2.00E-06
625	0.000168419	0.000133753	0.000666809	-0.000297976	-8.35E-05	8.91E-05	-0.000116825	7.15E-07
626	0.00015769	0.000126314	0.000659037	-0.000311565	-9.41E-05	7.82E-05	-0.000126505	-5.67E-06
627	0.000136232	0.000117922	0.000649595	-0.000335026	-0.000115585	5.72E-05	-0.000148153	-2.11E-05
628	0.000137854	0.000124025	0.000659132	-0.000331497	-0.000112724	5.93E-05	-0.000146818	-2.22E-05
629	0.000167704	0.000136805	0.000672674	-0.000296545	-8.22E-05	9.02E-05	-0.00011611	1.14E-06
630	0.000168037	0.000132704	0.000667381	-0.000298834	-8.53E-05	8.92E-05	-0.000117588	1.43E-07
631	0.000156689	0.000126648	0.000660133	-0.000311327	-9.60E-05	7.86E-05	-0.000128174	-6.44E-06
632	0.000135422	0.000116014	0.0006495	-0.000334597	-0.000115585	5.70E-05	-0.00014801	-2.18E-05
633	0.000136757	0.000124025	0.000658512	-0.000331926	-0.000113297	6.05E-05	-0.000146914	-2.24E-05
634	0.000167274	0.000136518	0.000671625	-0.000297976	-8.25E-05	9.21E-05	-0.00011673	2.10E-06
635	0.000167418	0.000133085	0.000665617	-0.000298595	-8.46E-05	8.97E-05	-0.00011673	7.15E-07
636	0.000156784	0.000125122	0.000658274	-0.000312281	-9.59E-05	7.73E-05	-0.000128078	-5.20E-06
637	0.000137281	0.000117159	0.0006495	-0.000334787	-0.000115299	5.73E-05	-0.00014782	-2.12E-05
638	0.000137615	0.000124216	0.000657511	-0.000331306	-0.000112581	5.94E-05	-0.00014677	-2.20E-05
639	0.000167608	0.000137281	0.000671339	-0.00029788	-8.26E-05	9.10E-05	-0.000116205	2.57E-06
640	0.000167465	0.000134039	0.000666761	-0.000298929	-8.50E-05	9.04E-05	-0.000116491	2.43E-06
641	0.00015707	0.000126028	0.000658655	-0.000311041	-9.66E-05	7.86E-05	-0.000127172	-4.82E-06
642	0.000137329	0.000117016	0.000648594	-0.000334549	-0.000116158	5.65E-05	-0.000148153	-2.06E-05
643	0.000135517	0.000124454	0.000657463	-0.000333929	-0.000114393	5.84E-05	-0.000147152	-2.27E-05
644	0.000167704	0.000137424	0.000671816	-0.000298405	-8.30E-05	9.05E-05	-0.000115585	1.48E-06
645	0.000169706	0.000134468	0.000666428	-0.000298166	-8.44E-05	8.96E-05	-0.000115728	2.57E-06
646	0.000158882	0.000126886	0.00065856	-0.000310993	-9.59E-05	7.89E-05	-0.00012598	-5.82E-06
647	0.000144196	0.000124454	0.000655603	-0.00032773	-0.000107241	6.55E-05	-0.000139856	-1.54E-05
648	0.000157404	0.000145864	0.000682974	-0.000311232	-8.90E-05	8.32E-05	-0.000122976	-7.92E-06
649	0.000203753	0.000170898	0.000716496	-0.000260067	-4.12E-05	0.000134087	-7.25E-05	2.74E-05
650	0.000219631	0.000180817	0.000732374	-0.00024457	-2.10E-05	0.000152445	-5.26E-05	3.92E-05
651	0.000223589	0.000187302	0.000744247	-0.000241327	-1.07E-05	0.000163364	-4.28E-05	4.15E-05
652	0.00021677	0.000191641	0.000753307	-0.000250387	-1.39E-05	0.000157547	-4.69E-05	3.91E-05
653	0.000226545	0.00020833	0.000777388	-0.000233555	7.63E-07	0.000171804	-3.29E-05	4.48E-05
654	0.000268126	0.000230742	0.000804138	-0.000188828	4.33E-05	0.000215816	9.97E-06	7.59E-05
655	0.000276279	0.000235224	0.000809813	-0.000181675	5.04E-05	0.000224066	1.95E-05	8.29E-05
656	0.000272179	0.000230169	0.000806761	-0.000188875	4.61E-05	0.000219059	1.56E-05	7.91E-05
657	0.000251102	0.000221539	0.000796366	-0.000211525	2.68E-05	0.000197983	-4.86E-06	6.38E-05
658	0.000243092	0.000225687	0.000800133	-0.000216627	2.06E-05	0.000191832	-1.28E-05	5.77E-05
659	0.000267887	0.000229168	0.000803661	-0.000188351	4.26E-05	0.000216532	9.25E-06	7.62E-05
660	0.000259066	0.000217009	0.00078578	-0.000197077	2.90E-05	0.000204945	-1.53E-06	7.00E-05
661	0.000236797	0.000200653	0.000762129	-0.000225353	3.77E-06	0.000178385	-2.63E-05	5.29E-05
662	0.000203419	0.00017848	0.000734377	-0.000263882	-3.22E-05	0.000141239	-6.30E-05	2.68E-05
663	0.000185871	0.000170755	0.000722075	-0.000281191	-5.33E-05	0.000118589	-8.52E-05	1.39E-05
664	0.000202799	0.000170708	0.000716066	-0.000260544	-4.05E-05	0.000132084	-7.38E-05	2.54E-05
665	0.000189924	0.000154638	0.0006917	-0.000276279	-5.96E-05	0.000115204	-9.06E-05	1.79E-05
666	0.000164843	0.000133896	0.000665569	-0.000303078	-8.79E-05	8.62E-05	-0.00011797	-9.54E-08
667	0.000139666	0.000118542	0.000649261	-0.000332355	-0.000112963	5.87E-05	-0.000146008	-1.87E-05
668	0.000135946	0.000124502	0.00065794	-0.000333452	-0.000114536	5.73E-05	-0.000147438	-2.27E-05
669	0.000167084	0.000136709	0.000671101	-0.000299263	-8.41E-05	8.90E-05	-0.000117016	3.81E-07
670	0.000168371	0.000133514	0.000666046	-0.000298309	-8.32E-05	8.96E-05	-0.000115919	2.53E-06
671	0.000156736	0.000127268	0.000657749	-0.000311661	-9.55E-05	7.72E-05	-0.000127363	-5.91E-06
672	0.000137997	0.00011816	0.000647306	-0.000333309	-0.000112867	5.82E-05	-0.000146055	-1.93E-05
673	0.000136185	0.000124359	0.000657368	-0.000333643	-0.000112772	5.77E-05	-0.00014739	-2.19E-05
674	0.000167418	0.000136471	0.000672197	-0.000298071	-8.30E-05	9.03E-05	-0.000115585	1.34E-06
675	0.000169611	0.000133324	0.000667953	-0.000296307	-8.25E-05	9.17E-05	-0.000114012	3.53E-06
676	0.000158739	0.000126886	0.000658417	-0.000309515	-9.42E-05	7.98E-05	-0.000126791	-4.48E-06
677	0.00013895	0.000117636	0.000648832	-0.000331354	-0.000112057	6.00E-05	-0.000146198	-1.87E-05
678	0.000134516	0.000124216	0.000656557	-0.000333357	-0.000114298	5.73E-05	-0.000148392	-2.29E-05
679	0.000166321	0.000136566	0.000671625	-0.000298405	-8.39E-05	8.90E-05	-0.00011692	-7.15E-07
680	0.000169134	0.000134134	0.000668049	-0.000296164	-8.27E-05	9.03E-05	-0.000114632	1.62E-06
681	0.000158644	0.000126982	0.000660181	-0.000310707	-9.56E-05	7.92E-05	-0.000125933	-7.20E-06
682	0.000140047	0.000117683	0.000649166	-0.000332355	-0.00011344	6.03E-05	-0.000143766	-1.94E-05
683	0.000134754	0.00012393	0.000657511	-0.000334501	-0.00011549	5.83E-05	-0.000147486	-2.27E-05
684	0.000165272	0.000136662	0.000671339	-0.000299644	-8.57E-05	8.93E-05	-0.000117207	0
685	0.000166416	0.000132179	0.000662851	-0.000296879	-8.63E-05	9.06E-05	-0.000117111	2.53E-06
686	0.00013423	0.000111723	0.000635481	-0.00031848	-0.000117159	6.70E-05	-0.000149918	-8.54E-06
687	6.89E-05	5.39E-05	0.000579643	-0.00037365	-0.000179577	-1.38E-06	-0.000214243	-3.54E-05
688	1.49E-05	4.43E-06	0.000536251	-0.000402403	-0.000210667	-5.37E-05	-0.000263691	-3.94E-05
689	2.87E-05	-1.91E-07	0.000533438	-0.000328875	-0.000108814	4.05E-06	-0.000248957	2.50E-05
690	0.000105715	6.31E-05	0.000601435	-0.000206327	9.97E-05	0.000158596	-0.000162458	0.000103521
691	0.000249767	0.00018301	0.000749207	-7.43E-05	0.000382137	0.000429726	2.59E-05	0.000163507
692	0.000451994	0.000351572	0.000962591	5.06E-05	0.000643969	0.000734854	0.000282478	0.000204468
693	0.000700378	0.000544596	0.0012229	0.000162315	0.000917578	0.0010879	0.000588369	0.000238848
694	0.000982237	0.000743198	0.00148649	0.000209999	0.00110817	0.00140262	0.000927591	0.000245905
695	0.00114298	0.000856829	0.00163708	3.67E-05	0.000972462	0.00142326	0.00107546	0.000117826
696	0.00109997	0.000825691	0.00159683	-0.000314569	0.000532103	0.00116353	0.00096097	-0.000116205
697	0.000911379	0.000688267	0.00141597	-0.000775099	-1.33E-05	0.000784588	0.000705814	-0.000387383
698	0.000675106	0.00052371	0.0011939	-0.00121746	-0.000536442	0.000390244	0.000400686	-0.000623322
699	0.000456142	0.000354862	0.000960159	-0.00141559	-0.000828075	8.05E-05	0.000114965	-0.000722075
700	0.00025115	0.000198317	0.000746059	-0.00134492	-0.000820303	-0.000144291	-9.16E-05	-0.000646162
701	0.000134373	0.000110626	0.000633192	-0.00110512	-0.000649118	-0.000204563	-0.000203133	-0.000472784
702	6.44E-05	5.66E-05	0.000575733	-0.000845289	-0.000451612	-0.000173903	-0.000249672	-0.000305843
703	5.27E-05	4.61E-05	0.000576162	-0.000616741	-0.000293922	-8.80E-05	-0.00024662	-0.000172281
704	0.000110388	9.03E-05	0.000617218	-0.000428963	-0.000169086	1.56E-05	-0.000183535	-6.73E-05
705	0.000152159	0.000124884	0.000648785	-0.000335884	-0.000110483	6.55E-05	-0.000140285	-1.39E-05
706	0.000155401	0.00012722	0.000655794	-0.000315714	-9.92E-05	7.53E-05	-0.00013113	-7.39E-06
707	0.000139999	0.000119448	0.000649261	-0.000330782	-0.000111151	6.18E-05	-0.000144577	-1.75E-05
708	0.000135136	0.000122976	0.000656414	-0.000334835	-0.000114775	5.80E-05	-0.000148392	-2.30E-05
709	0.000164127	0.000136995	0.00067091	-0.000300884	-8.55E-05	8.80E-05	-0.000118828	4.77E-08
710	0.000170279	0.000134993	0.000666904	-0.000295639	-8.25E-05	9.22E-05	-0.000113916	3.53E-06
711	0.000159025	0.000127935	0.000659657	-0.000308466	-9.33E-05	8.05E-05	-0.000125265	-5.39E-06
712	0.00014081	0.0001194	0.000649738	-0.000330734	-0.000111008	6.05E-05	-0.000143337	-1.83E-05
713	0.000133657	0.000123692	0.000655699	-0.000336075	-0.000117111	5.66E-05	-0.000149393	-2.29E-05
714	0.000164413	0.000137472	0.00067091	-0.000300503	-8.65E-05	8.82E-05	-0.000119019	6.20E-07
715	0.000170612	0.000134659	0.000667381	-0.00029459	-8.16E-05	9.32E-05	-0.000113106	4.96E-06
716	0.000158691	0.000127125	0.000659037	-0.000309324	-9.46E-05	8.05E-05	-0.000125933	-4.34E-06
717	0.000141191	0.000119305	0.000649929	-0.000329494	-0.000112104	6.09E-05	-0.000144053	-1.68E-05
718	0.000133181	0.000123835	0.000655413	-0.000334978	-0.000115681	5.49E-05	-0.000149775	-2.44E-05
719	0.000164032	0.00013566	0.000670099	-0.000300932	-8.59E-05	8.65E-05	-0.000119543	-2.43E-06
720	0.000170898	0.000134373	0.000666904	-0.000296259	-8.22E-05	9.16E-05	-0.000113297	2.62E-06
721	0.000158453	0.000127363	0.000658846	-0.00031023	-9.45E-05	7.82E-05	-0.000126123	-5.29E-06
722	0.000141525	0.0001194	0.000650024	-0.000330734	-0.000111866	6.01E-05	-0.000143671	-1.75E-05
723	0.000133324	0.000123549	0.000656033	-0.000336027	-0.000116873	5.51E-05	-0.000150347	-2.40E-05
724	0.000164223	0.000136995	0.000670767	-0.000300741	-8.61E-05	8.78E-05	-0.000119448	-1.91E-07
725	0.00017066	0.000134516	0.000667953	-0.00029521	-8.12E-05	9.24E-05	-0.000113821	5.29E-06
726	0.000159407	0.000126791	0.000658941	-0.000309277	-9.32E-05	8.04E-05	-0.000126076	-3.15E-06
727	0.000141382	0.00011878	0.000648308	-0.000329447	-0.000110626	6.22E-05	-0.000142717	-1.59E-05
728	0.000133038	0.000123119	0.000654793	-0.000336218	-0.00011673	5.50E-05	-0.000150633	-2.36E-05
729	0.000162649	0.000136757	0.000670481	-0.000300741	-8.62E-05	8.72E-05	-0.000119495	3.81E-07
730	0.000169611	0.000134993	0.000667381	-0.000293684	-8.22E-05	9.35E-05	-0.000113535	6.15E-06
731	0.000156784	0.000128222	0.000659418	-0.000308323	-9.37E-05	8.03E-05	-0.000126743	-4.96E-06
732	0.000140095	0.000119352	0.000649309	-0.000329733	-0.000110006	6.20E-05	-0.000143528	-1.76E-05
733	0.000133276	0.000122786	0.000654602	-0.000335789	-0.000115442	5.58E-05	-0.000150061	-2.50E-05
734	0.000163698	0.000136757	0.000669193	-0.000301886	-8.55E-05	8.67E-05	-0.000119734	-1.76E-06
735	0.000172901	0.000137854	0.000668764	-0.000292015	-7.51E-05	9.88E-05	-0.000110435	4.96E-06
736	0.000170994	0.000141764	0.000673246	-0.000291443	-6.17E-05	0.000107956	-0.000110388	2.43E-06
737	0.000166607	0.000147295	0.000679779	-0.000292969	-4.30E-05	0.000118351	-0.000108957	-1.96E-06
738	0.000171328	0.000166893	0.000704432	-0.000280857	-1.35E-05	0.000141048	-9.66E-05	-3.81E-07
739	0.000216961	0.000193262	0.000736904	-0.000224638	5.57E-05	0.000205708	-4.64E-05	3.41E-05
740	0.000241566	0.000209522	0.000755501	-0.000193977	0.000101423	0.000245714	-1.87E-05	5.00E-05
741	0.000245142	0.000216913	0.000765991	-0.000187778	0.000128317	0.000264406	-1.04E-05	5.11E-05
742	0.000244188	0.000222015	0.000775385	-0.000185776	0.000151539	0.000279951	-7.06E-06	4.95E-05
743	0.000249624	0.000240135	0.0008008	-0.000170851	0.000183153	0.000305367	5.05E-06	5.26E-05
744	0.000294542	0.000268602	0.00083437	-0.000113773	0.000249052	0.000367594	5.59E-05	8.45E-05
745	0.000317001	0.000281048	0.000849867	-8.59E-05	0.000292492	0.000406504	8.18E-05	0.000100994
746	0.000317144	0.000286484	0.000856256	-8.52E-05	0.000310469	0.000419426	8.51E-05	9.84E-05
747	0.00030818	0.00028224	0.000853157	-9.87E-05	0.000304365	0.000411367	7.37E-05	8.96E-05
748	0.000298691	0.000286627	0.000859451	-0.000105953	0.000299358	0.000405169	6.56E-05	8.14E-05
749	0.000331116	0.000305128	0.000879097	-6.61E-05	0.000341272	0.000443316	0.000101519	0.000106525
750	0.000349665	0.000317001	0.000890875	-4.00E-05	0.0003757	0.000474501	0.000126028	0.000121975
751	0.000347519	0.000318909	0.000896454	-3.88E-05	0.000391006	0.000485134	0.000129175	0.00012002
752	0.000339556	0.000319433	0.00089674	-4.68E-05	0.000399113	0.000486374	0.000125837	0.000114536
753	0.00034008	0.0003304	0.000912619	-4.36E-05	0.000414419	0.000497532	0.000127506	0.000112867
754	0.000377178	0.000354242	0.000938034	1.34E-06	0.000461197	0.000544357	0.000167513	0.000139856
755	0.000393963	0.000356722	0.000940943	1.78E-05	0.000482273	0.000564289	0.000184011	0.000150156
756	0.000383329	0.000350285	0.000937653	6.10E-06	0.000478649	0.000558376	0.000172758	0.000139856
757	0.000367641	0.00034337	0.000928831	-1.19E-05	0.000465202	0.000543261	0.000157309	0.000128889
758	0.000357103	0.000346804	0.000932837	-2.13E-05	0.000457001	0.000534201	0.000149012	0.000120211
759	0.00038743	0.000358152	0.000947428	1.09E-05	0.000484705	0.000563097	0.000177193	0.000141287
760	0.000394201	0.000356722	0.000941944	1.67E-05	0.000481415	0.000563383	0.000182056	0.000150728
761	0.000373983	0.000346708	0.000927496	-4.86E-06	0.000453663	0.000539732	0.000161743	0.000137949
762	0.000352001	0.000327301	0.000908089	-3.25E-05	0.000422239	0.000507307	0.000136089	0.000121498
763	0.000329828	0.000322342	0.000901175	-5.43E-05	0.000391483	0.000477791	0.000116491	0.000105858
764	0.000349426	0.000327063	0.000906324	-3.48E-05	0.000396681	0.000490046	0.000131273	0.000121975
765	0.000348616	0.000315857	0.000891495	-4.12E-05	0.000375128	0.000475121	0.000126028	0.000123167
766	0.000323486	0.000295162	0.000867128	-7.45E-05	0.000331211	0.000435352	9.74E-05	0.000103426
767	0.000293541	0.000271702	0.00083952	-0.000111055	0.000281143	0.000391006	6.28E-05	8.33E-05
768	0.000270128	0.000260448	0.000827026	-0.000139284	0.000236654	0.000351906	3.47E-05	6.67E-05
769	0.000285816	0.000260639	0.000823784	-0.000126505	0.000230122	0.000350618	4.52E-05	7.91E-05
770	0.000280428	0.000245476	0.00080266	-0.000138617	0.000200462	0.000328255	3.29E-05	7.71E-05
771	0.000252533	0.000222683	0.00077467	-0.000175667	0.000146818	0.000280428	-1.43E-07	5.67E-05
772	0.000220871	0.00019989	0.000747585	-0.000216198	9.26E-05	0.000232363	-3.63E-05	3.49E-05
773	0.00019393	0.00018487	0.000730085	-0.000249147	4.36E-05	0.000189686	-6.66E-05	1.49E-05
774	0.000207996	0.000184774	0.000727463	-0.00023675	3.52E-05	0.000187397	-5.76E-05	2.81E-05
775	0.000202799	0.000170898	0.000708103	-0.000248241	6.15E-06	0.000165987	-6.69E-05	2.37E-05
776	0.000177574	0.000149679	0.000680637	-0.000281906	-4.32E-05	0.000123358	-9.98E-05	5.77E-06
777	0.000149918	0.000125551	0.000656319	-0.00031724	-9.26E-05	8.00E-05	-0.000132275	-1.30E-05
778	0.000131941	0.000120783	0.000654411	-0.000337124	-0.000118113	5.45E-05	-0.00015111	-2.57E-05
779	0.000160408	0.000133896	0.00066905	-0.00030427	-8.96E-05	8.45E-05	-0.000121975	-3.29E-06
780	0.000171137	0.000134659	0.00066843	-0.000293827	-7.98E-05	9.41E-05	-0.000112152	5.67E-06
781	0.000158453	0.000128317	0.000658703	-0.000308466	-9.42E-05	8.08E-05	-0.000124073	-5.05E-06
782	0.000142813	0.000118923	0.000648308	-0.000325966	-0.000109482	6.48E-05	-0.000140619	-1.63E-05
783	0.000130796	0.000120354	0.000652981	-0.000337934	-0.000119591	5.44E-05	-0.000152397	-2.66E-05
784	0.000160265	0.000134659	0.000669193	-0.000304413	-8.95E-05	8.48E-05	-0.000123215	-3.05E-06
785	0.000171661	0.000136089	0.000667715	-0.000292158	-8.10E-05	9.34E-05	-0.000112963	5.39E-06
786	0.000158739	0.000128698	0.00065999	-0.000308657	-9.35E-05	7.98E-05	-0.000124979	-4.72E-06
787	0.000143003	0.00011816	0.000650644	-0.000326109	-0.000109053	6.48E-05	-0.000140285	-1.47E-05
788	0.000129509	0.000119734	0.00065341	-0.000337601	-0.000119019	5.44E-05	-0.000151825	-2.63E-05
789	0.000160027	0.000135183	0.000668955	-0.000304747	-9.00E-05	8.41E-05	-0.000123119	-4.86E-06
790	0.000172234	0.000135183	0.000668383	-0.000293207	-8.07E-05	9.46E-05	-0.000112104	4.91E-06
791	0.000159454	0.000127506	0.000660133	-0.000307894	-9.40E-05	8.12E-05	-0.000124502	-5.10E-06
792	0.000144529	0.000118399	0.000649881	-0.00032692	-0.000108576	6.59E-05	-0.00013938	-1.58E-05
793	0.000131464	0.000120258	0.000652552	-0.00033946	-0.0001194	5.45E-05	-0.000151443	-2.63E-05
794	0.000160885	0.000134659	0.000669289	-0.00030551	-8.99E-05	8.44E-05	-0.000123453	-5.63E-06
795	0.000171566	0.000135326	0.000668192	-0.000293446	-8.05E-05	9.61E-05	-0.000111818	5.63E-06
796	0.000158787	0.000128651	0.00066123	-0.000308561	-9.36E-05	8.14E-05	-0.000125027	-5.05E-06
797	0.000144529	0.000119305	0.000651026	-0.000326586	-0.000108528	6.53E-05	-0.000139713	-1.54E-05
798	0.000130367	0.000120592	0.000654459	-0.000339174	-0.000120354	5.34E-05	-0.000150871	-2.63E-05
799	0.000159883	0.000134611	0.000669289	-0.000305223	-9.13E-05	8.46E-05	-0.000122166	-4.63E-06
800	0.000172186	0.000134134	0.000668526	-0.000292778	-8.05E-05	9.54E-05	-0.000111008	6.77E-06
801	0.000160503	0.000127077	0.000661039	-0.000307608	-9.39E-05	8.10E-05	-0.000123835	-4.10E-06
802	0.00014472	0.00011816	0.000649929	-0.000325966	-0.000108671	6.55E-05	-0.000140667	-1.48E-05
803	0.000131035	0.000119877	0.000652456	-0.000338984	-0.000119495	5.33E-05	-0.000153542	-2.66E-05
804	0.000160074	0.000135136	0.000669527	-0.000305891	-9.02E-05	8.41E-05	-0.000123453	-4.10E-06
805	0.000172377	0.000135469	0.000668907	-0.000293446	-7.94E-05	9.50E-05	-0.0001122	5.15E-06
806	0.000160456	0.00012846	0.000661039	-0.000308037	-9.34E-05	8.05E-05	-0.000124979	-3.81E-06
807	0.000145531	0.000119114	0.000650597	-0.000325823	-0.000108004	6.50E-05	-0.000140619	-1.48E-05
808	0.000130415	0.000119543	0.000652218	-0.000338936	-0.000118876	5.26E-05	-0.000152969	-2.70E-05
809	0.000159454	0.000134897	0.000669479	-0.000306654	-8.96E-05	8.29E-05	-0.000124598	-5.29E-06
810	0.000173378	0.000134945	0.000669622	-0.000293207	-7.95E-05	9.47E-05	-0.000112295	5.20E-06
811	0.000160599	0.000126696	0.0006598	-0.000308466	-9.25E-05	8.24E-05	-0.00012331	-4.96E-06
812	0.000145483	0.000119114	0.000650597	-0.000325489	-0.000107622	6.61E-05	-0.000139189	-1.53E-05
813	0.000130224	0.00012002	0.000652552	-0.00033865	-0.000119066	5.21E-05	-0.000152683	-2.69E-05
814	0.00015955	0.000134182	0.000667763	-0.000305986	-9.07E-05	8.23E-05	-0.000123358	-5.34E-06
815	0.000172806	0.000134993	0.000668573	-0.000293541	-8.04E-05	9.45E-05	-0.000109911	7.58E-06
816	0.000160265	0.000129032	0.000660658	-0.000308561	-9.37E-05	8.04E-05	-0.000123692	-3.53E-06
817	0.000145435	0.000119638	0.000650787	-0.000324583	-0.000107384	6.63E-05	-0.00013957	-1.47E-05
818	0.000130367	0.000119829	0.000653172	-0.000338888	-0.0001194	5.26E-05	-0.000153399	-2.64E-05
819	0.000158691	0.000134039	0.000668812	-0.000306797	-9.03E-05	8.29E-05	-0.00012517	-5.58E-06
820	0.000172567	0.000135088	0.000668764	-0.000292969	-7.93E-05	9.56E-05	-0.000112629	5.77E-06
821	0.000159788	0.000128126	0.000660467	-0.000307369	-9.26E-05	8.15E-05	-0.000124073	-4.01E-06
822	0.000145912	0.000119591	0.000650692	-0.000324297	-0.000105953	6.62E-05	-0.000139046	-1.43E-05
823	0.000130844	0.000119686	0.000653648	-0.000338888	-0.000119257	5.27E-05	-0.000152683	-2.69E-05
824	0.00016036	0.000134468	0.000670147	-0.00030632	-9.12E-05	8.23E-05	-0.000124168	-4.77E-06
825	0.000174141	0.000136089	0.000669622	-0.00029211	-7.96E-05	9.47E-05	-0.000111055	5.20E-06
826	0.000160742	0.000129128	0.00066061	-0.000307894	-9.28E-05	8.07E-05	-0.000123358	-2.91E-06
827	0.000146484	0.000119495	0.000650692	-0.000325155	-0.000107718	6.69E-05	-0.00013833	-1.34E-05
828	0.000131178	0.000119686	0.000653028	-0.000339794	-0.000120926	5.26E-05	-0.000153542	-2.69E-05
829	0.000159836	0.000134897	0.000668526	-0.000307512	-9.24E-05	8.17E-05	-0.000124502	-6.01E-06
830	0.000174093	0.000136232	0.000669336	-0.000292492	-7.95E-05	9.53E-05	-0.000111294	6.77E-06
831	0.000160694	0.000128078	0.000661516	-0.000306129	-9.23E-05	8.22E-05	-0.000124598	-3.67E-06
832	0.000147486	0.000120497	0.000651741	-0.000323153	-0.000105906	6.74E-05	-0.000138617	-1.24E-05
833	0.000130415	0.00012002	0.000653315	-0.000339937	-0.00012064	5.27E-05	-0.000154257	-2.60E-05
834	0.00015893	0.000133657	0.000669336	-0.000309181	-9.26E-05	8.27E-05	-0.000125265	-5.05E-06
835	0.000173855	0.000135422	0.000669432	-0.00029273	-7.95E-05	9.66E-05	-0.000111723	6.68E-06
836	0.000161362	0.000128174	0.000661707	-0.000307083	-9.30E-05	8.21E-05	-0.000124645	-3.81E-06
837	0.000152969	0.000126505	0.000657988	-0.00031786	-9.86E-05	7.40E-05	-0.000131226	-8.73E-06
838	0.000150394	0.000141764	0.000678444	-0.000319338	-9.47E-05	7.62E-05	-0.000128508	-1.23E-05
839	0.000194311	0.000168037	0.000714397	-0.000270653	-5.02E-05	0.000123978	-8.24E-05	1.89E-05
840	0.000223541	0.000182533	0.000734615	-0.000239229	-1.81E-05	0.00015707	-4.89E-05	4.31E-05
841	0.000226593	0.000189304	0.000745964	-0.000237846	-9.87E-06	0.00016489	-4.02E-05	4.43E-05
842	0.000226164	0.000193787	0.00075593	-0.000239229	-7.49E-06	0.000167656	-3.80E-05	4.53E-05
843	0.000220871	0.000202656	0.000772524	-0.000240469	-5.53E-06	0.000166988	-3.87E-05	4.12E-05
844	0.000258303	0.00022645	0.000801945	-0.000198889	3.43E-05	0.000208044	1.72E-06	6.88E-05
845	0.00028224	0.000238419	0.000813293	-0.000175667	5.62E-05	0.000230932	2.47E-05	8.76E-05
846	0.00027523	0.000232029	0.000807619	-0.000184059	4.85E-05	0.000222921	1.83E-05	8.09E-05
847	0.00026083	0.000223112	0.000798655	-0.000200558	3.52E-05	0.000208473	4.48E-06	7.16E-05
848	0.000237942	0.000221586	0.000795221	-0.000224209	1.41E-05	0.000187063	-1.92E-05	5.39E-05
849	0.000258398	0.000226212	0.000800323	-0.000200939	3.45E-05	0.000207138	6.68E-07	6.87E-05
850	0.000263453	0.000218058	0.000788975	-0.000193739	3.57E-05	0.000209475	3.58E-06	7.35E-05
851	0.000240421	0.000202131	0.000765181	-0.000222826	8.96E-06	0.000182247	-2.39E-05	5.55E-05
852	0.000213957	0.00018115	0.000737238	-0.000254107	-2.14E-05	0.000151253	-5.41E-05	3.51E-05
853	0.00018158	0.000166655	0.00071702	-0.000287151	-5.82E-05	0.000113535	-9.06E-05	1.12E-05
854	0.000193834	0.00016861	0.000713015	-0.000270653	-4.99E-05	0.000123453	-8.20E-05	1.94E-05
855	0.000193357	0.00015769	0.000695086	-0.000271654	-5.41E-05	0.000120544	-8.55E-05	2.00E-05
856	0.00016613	0.000136614	0.000668669	-0.000301075	-8.42E-05	9.05E-05	-0.000115061	9.54E-07
857	0.00014801	0.000120163	0.000651789	-0.000323009	-0.000104761	6.90E-05	-0.000135946	-1.14E-05
858	0.000130892	0.00011878	0.000652742	-0.000341225	-0.000120115	5.14E-05	-0.000152969	-2.64E-05
859	0.000156927	0.00013299	0.000669718	-0.000310993	-9.28E-05	7.94E-05	-0.000125933	-6.82E-06
860	0.000172997	0.000135851	0.000670767	-0.000293684	-7.93E-05	9.46E-05	-0.000110531	6.39E-06
861	0.000161123	0.00012784	0.000661325	-0.00030756	-9.16E-05	8.19E-05	-0.000122929	-3.62E-06
862	0.000148821	0.000118637	0.000652218	-0.000323963	-0.000105572	6.71E-05	-0.000136948	-1.24E-05
863	0.000131512	0.000117493	0.000652313	-0.000341034	-0.000120878	5.20E-05	-0.000153112	-2.67E-05
864	0.00015707	0.000133085	0.000668335	-0.000309992	-9.37E-05	8.00E-05	-0.000127172	-7.82E-06
865	0.000172663	0.000135231	0.000669765	-0.000292015	-7.90E-05	9.51E-05	-0.000110579	6.72E-06
866	0.000160027	0.000128603	0.000661278	-0.000307369	-9.27E-05	8.21E-05	-0.000123072	-4.63E-06
867	0.000148153	0.000121403	0.000652027	-0.000323391	-0.000105095	6.80E-05	-0.00013628	-1.18E-05
868	0.000130701	0.000119925	0.000651264	-0.000340509	-0.000121069	5.10E-05	-0.00015254	-2.61E-05
869	0.000158119	0.000133371	0.000668335	-0.000309896	-9.35E-05	7.98E-05	-0.000126076	-5.44E-06
870	0.000174665	0.000135136	0.000669289	-0.000292921	-7.92E-05	9.55E-05	-0.000109959	6.20E-06
871	0.000161028	0.000127697	0.000661182	-0.000307608	-9.25E-05	8.19E-05	-0.00012331	-1.96E-06
872	0.000148106	0.000120211	0.000652122	-0.000323105	-0.000105	6.75E-05	-0.000136328	-1.15E-05
873	0.000131464	0.000118399	0.000651264	-0.000340176	-0.00012064	5.12E-05	-0.000153637	-2.62E-05
874	0.000156784	0.000132942	0.000667477	-0.000310946	-9.43E-05	7.92E-05	-0.000125933	-6.53E-06
875	0.000170612	0.00013361	0.000665617	-0.000293589	-8.19E-05	9.42E-05	-0.000112247	6.82E-06
876	0.000138092	0.000113487	0.000638866	-0.000316095	-0.000114393	7.05E-05	-0.000147057	-5.53E-06
877	7.82E-05	5.69E-05	0.00058403	-0.000365591	-0.000170279	8.63E-06	-0.000205135	-2.78E-05
878	1.03E-05	-1.76E-06	0.00053196	-0.000408936	-0.000215578	-5.93E-05	-0.000268888	-4.34E-05
879	1.78E-05	-4.10E-06	0.000529432	-0.000341034	-0.000120401	-8.39E-06	-0.000258541	1.78E-05
880	0.000107241	6.40E-05	0.000602388	-0.000204992	0.00010004	0.000158739	-0.000160313	0.000105858
881	0.000251913	0.000183296	0.000750113	-7.32E-05	0.000382614	0.000430298	2.57E-05	0.000166988
882	0.000461292	0.000354528	0.000963688	5.87E-05	0.000651121	0.000742388	0.000289583	0.000213385
883	0.00069418	0.000539207	0.00121679	0.000153923	0.000910187	0.00108042	0.000580215	0.000236034
884	0.000970268	0.000739336	0.00148253	0.00019989	0.00109901	0.00139079	0.000914669	0.000239611
885	0.00114598	0.000858212	0.00164042	4.33E-05	0.000977373	0.00142703	0.0010767	0.00012331
886	0.00110312	0.000827694	0.00160074	-0.000308847	0.000536394	0.00116773	0.000963116	-0.000112486
887	0.000921202	0.000691414	0.00142069	-0.000762796	-2.43E-06	0.000796175	0.000713825	-0.000377893
888	0.000673866	0.000519466	0.00119023	-0.00122099	-0.000539351	0.000387096	0.000397635	-0.000622845
889	0.000449419	0.000352526	0.000960016	-0.00142674	-0.000836468	7.30E-05	0.000107813	-0.000727606
890	0.000255489	0.000202465	0.000751543	-0.0013443	-0.000818586	-0.000138617	-8.69E-05	-0.000643635
891	0.000136757	0.00011425	0.000636196	-0.00110464	-0.000649071	-0.000201178	-0.000200415	-0.000472689
892	7.57E-05	5.96E-05	0.000579071	-0.000836945	-0.000444031	-0.000165415	-0.000241756	-0.000301313
893	5.04E-05	4.26E-05	0.000571299	-0.000622797	-0.000300169	-9.37E-05	-0.000250769	-0.000174809
894	0.000100088	8.66E-05	0.000613213	-0.000440931	-0.000178766	6.25E-06	-0.000192595	-7.48E-05
895	0.000154209	0.000126791	0.000650692	-0.000333738	-0.000108099	6.98E-05	-0.00013752	-1.17E-05
896	0.000157833	0.000129652	0.000657511	-0.000313139	-9.79E-05	7.82E-05	-0.000128078	-4.58E-06
897	0.000148678	0.000121164	0.000652504	-0.000323248	-0.000105429	6.92E-05	-0.000134754	-1.24E-05
898	0.000129271	0.000118732	0.000651264	-0.000341797	-0.000122023	5.12E-05	-0.000153351	-2.79E-05
899	0.000153971	0.000132942	0.000667572	-0.000311518	-9.56E-05	7.74E-05	-0.000128889	-8.54E-06
900	0.000173521	0.00013752	0.000670147	-0.000291204	-7.84E-05	9.61E-05	-0.00011096	7.72E-06
901	0.000162506	0.000130606	0.000662804	-0.000304747	-8.95E-05	8.33E-05	-0.000122547	-2.72E-06
902	0.000149441	0.000123024	0.000653076	-0.000320053	-0.000102091	7.01E-05	-0.000135279	-1.28E-05
903	0.000129747	0.000119543	0.000650597	-0.00034008	-0.000120163	5.11E-05	-0.000152874	-2.80E-05
904	0.000154972	0.000132751	0.000667524	-0.000311184	-9.51E-05	7.71E-05	-0.000127172	-8.15E-06
905	0.000174665	0.000136805	0.000670719	-0.000291777	-7.95E-05	9.57E-05	-0.000109768	5.05E-06
906	0.000161791	0.000130033	0.000662613	-0.000306368	-9.32E-05	8.28E-05	-0.00012269	-2.81E-06
907	0.000151157	0.000122213	0.000652456	-0.000320625	-0.00010438	7.02E-05	-0.000134277	-1.09E-05
908	0.000130939	0.000119209	0.000651169	-0.000341082	-0.000122023	5.20E-05	-0.000153303	-2.82E-05
909	0.000153732	0.000132608	0.000667	-0.000312519	-9.71E-05	7.70E-05	-0.000129223	-9.58E-06
910	0.000173903	0.000137472	0.000670624	-0.000292397	-8.00E-05	9.53E-05	-0.00011034	5.87E-06
911	0.000160789	0.000129652	0.000662041	-0.000306559	-9.27E-05	8.25E-05	-0.000123501	-3.19E-06
912	0.000149965	0.000122023	0.000651979	-0.000321198	-0.000103331	7.11E-05	-0.000135279	-9.97E-06
913	0.00013032	0.000119734	0.000650597	-0.000341988	-0.000122023	5.14E-05	-0.000154543	-2.68E-05
914	0.000154161	0.000133324	0.00066781	-0.000313377	-9.66E-05	7.70E-05	-0.000130463	-9.35E-06
915	0.000173664	0.0001369	0.000671339	-0.000292778	-7.94E-05	9.62E-05	-0.000110912	6.68E-06
916	0.0001616	0.000129032	0.000661278	-0.00030694	-9.25E-05	8.30E-05	-0.00012331	-2.43E-06
917	0.000150061	0.000122118	0.000651741	-0.000320148	-0.000103331	7.08E-05	-0.000133801	-1.01E-05
918	0.000129986	0.000119257	0.000650597	-0.000339842	-0.000121021	5.13E-05	-0.000152874	-2.63E-05
919	0.000153685	0.000132895	0.000667524	-0.000312471	-9.61E-05	7.68E-05	-0.000129128	-8.20E-06
920	0.000174332	0.000137281	0.000671196	-0.000291586	-7.91E-05	9.63E-05	-0.000110197	7.10E-06
921	0.000161934	0.000130033	0.000662136	-0.000306034	-9.16E-05	8.34E-05	-0.000121641	-2.48E-06
922	0.000150156	0.000122023	0.000652599	-0.000320244	-0.000103092	7.00E-05	-0.000133467	-1.03E-05
923	0.000129843	0.000118446	0.00065155	-0.000341129	-0.000121927	5.05E-05	-0.000153494	-2.70E-05
924	0.000153399	0.000133038	0.000667143	-0.000312901	-9.72E-05	7.59E-05	-0.00012989	-1.00E-05
925	0.000176287	0.000138903	0.000673294	-0.00028758	-7.32E-05	0.000100851	-0.000108385	6.87E-06
926	0.000174093	0.000142908	0.000675917	-0.000286436	-5.88E-05	0.000111055	-0.000107241	4.01E-06
927	0.00017662	0.000150347	0.000682545	-0.00028162	-3.36E-05	0.000128317	-9.90E-05	7.44E-06
928	0.000170565	0.000162506	0.000700474	-0.000284052	-1.73E-05	0.000139141	-9.92E-05	-9.54E-08
929	0.000208282	0.000188971	0.000733328	-0.000235748	4.64E-05	0.000194263	-5.48E-05	2.64E-05
930	0.000244427	0.000211525	0.00075841	-0.000190592	0.000103617	0.000248051	-1.49E-05	5.19E-05
931	0.000249672	0.000218105	0.000768757	-0.000182962	0.000130701	0.000267696	-7.06E-06	5.43E-05
932	0.00025444	0.000223684	0.000778294	-0.00017581	0.000159454	0.000288248	1.67E-06	5.76E-05
933	0.000247431	0.000237417	0.000797081	-0.000174761	0.000179958	0.000301075	2.81E-06	5.15E-05
934	0.000284624	0.000264978	0.000831127	-0.000125027	0.000240517	0.000356865	4.69E-05	7.73E-05
935	0.000320673	0.000283194	0.000852489	-8.23E-05	0.000297403	0.000409126	8.67E-05	0.000103045
936	0.000322247	0.000290775	0.000860643	-7.94E-05	0.00031848	0.000425386	9.23E-05	0.000102329
937	0.000323677	0.000297117	0.000867796	-7.68E-05	0.000339794	0.000438499	9.72E-05	0.000103474
938	0.000314522	0.000304508	0.000880098	-8.09E-05	0.000348949	0.000443649	9.15E-05	9.42E-05
939	0.000345993	0.000328016	0.000908422	-3.82E-05	0.00039916	0.000490093	0.000130272	0.000118065
940	0.000377703	0.000340652	0.000922966	-3.67E-06	0.000443029	0.000529099	0.00016346	0.000140238
941	0.000374508	0.000344515	0.00092721	-7.01E-06	0.00044961	0.000534821	0.00016017	0.000136518
942	0.000370216	0.000343943	0.000924253	-1.10E-05	0.000453615	0.000536251	0.000158024	0.000134516
943	0.000353956	0.000341129	0.000924969	-2.74E-05	0.000446367	0.000525665	0.000143671	0.000118637
944	0.000378656	0.000356197	0.000944185	1.91E-06	0.000476503	0.00055604	0.000170279	0.00013485
945	0.000401068	0.000361109	0.000949574	2.62E-05	0.000496817	0.000576496	0.000190973	0.000152302
946	0.000389767	0.000354481	0.000940847	1.14E-05	0.000482941	0.000561762	0.000177288	0.000143385
947	0.000376272	0.000344706	0.00092783	-5.44E-06	0.000464439	0.000544977	0.00016284	0.00013485
948	0.00034914	0.000339508	0.000921392	-3.33E-05	0.000434303	0.000515652	0.00013876	0.000116444
949	0.0003654	0.000346565	0.000929785	-1.54E-05	0.000443554	0.000527191	0.000152397	0.00012908
950	0.00037818	0.000343037	0.000923777	-3.67E-06	0.000442553	0.000530148	0.000163221	0.000139761
951	0.00035634	0.000328159	0.000905418	-2.88E-05	0.000406933	0.000498056	0.00013876	0.000123644
952	0.000335169	0.000309038	0.000881958	-5.81E-05	0.000369835	0.000463438	0.000112486	0.000111246
953	0.000301504	0.000293207	0.000864744	-9.95E-05	0.000320244	0.000417852	7.56E-05	8.58E-05
954	0.000312281	0.000292683	0.000863743	-9.08E-05	0.00031085	0.000416565	8.15E-05	9.35E-05
955	0.000320959	0.000285387	0.000852299	-8.30E-05	0.000297165	0.000408649	8.55E-05	0.000102425
956	0.000294733	0.000263596	0.000826311	-0.000116444	0.000247908	0.000364447	5.55E-05	8.43E-05
957	0.000268698	0.000240707	0.000797796	-0.00015316	0.000199938	0.000320816	2.26E-05	6.81E-05
958	0.000231314	0.00022049	0.00077424	-0.000197315	0.000141048	0.00026865	-1.74E-05	4.11E-05
959	0.000237226	0.000220203	0.000772667	-0.000192451	0.000124788	0.000260019	-1.56E-05	4.55E-05
960	0.000243807	0.000211096	0.000759363	-0.000189638	0.000104618	0.000250292	-1.46E-05	5.35E-05
961	0.000217104	0.000187206	0.000729942	-0.000226164	5.23E-05	0.000202608	-4.68E-05	3.51E-05
962	0.000190926	0.000165892	0.000703382	-0.000262022	2.53E-06	0.000159311	-7.79E-05	1.73E-05
963	0.000155115	0.00014658	0.00068121	-0.000303984	-5.21E-05	0.000108624	-0.000119066	-9.68E-06
964	0.000163937	0.000145817	0.000680161	-0.000297165	-6.59E-05	0.000103283	-0.000116777	-3.77E-06
965	0.000175476	0.000138569	0.00067296	-0.000288296	-7.26E-05	0.00010128	-0.000108767	8.06E-06
966	0.000162649	0.000129223	0.000662899	-0.0003057	-9.03E-05	8.37E-05	-0.000122595	-8.11E-07
967	0.000152445	0.000121641	0.000653219	-0.000318623	-9.99E-05	7.22E-05	-0.000133038	-9.35E-06
968	0.000129461	0.000118446	0.000649166	-0.00034194	-0.000121164	5.03E-05	-0.000155067	-2.71E-05
969	0.000152922	0.000131512	0.000665522	-0.000315094	-9.79E-05	7.37E-05	-0.000131655	-1.18E-05
970	0.000174952	0.000137281	0.000670862	-0.000291491	-7.78E-05	9.54E-05	-0.00011034	7.20E-06
971	0.000163126	0.000131178	0.000663567	-0.000304604	-9.05E-05	8.34E-05	-0.00012188	-1.38E-06
972	0.000152302	0.00012269	0.000653648	-0.000317764	-0.000101137	7.10E-05	-0.000132036	-8.06E-06
973	0.000130701	0.000117826	0.000649738	-0.000341511	-0.000120687	4.94E-05	-0.000154305	-2.70E-05
974	0.000152063	0.000131512	0.000666285	-0.000317764	-9.97E-05	7.31E-05	-0.00013299	-1.07E-05
975	0.00017519	0.000137615	0.000671911	-0.000292969	-7.82E-05	9.59E-05	-0.000111008	5.67E-06
976	0.000163031	0.000130367	0.000662613	-0.000305128	-9.08E-05	8.35E-05	-0.000122166	-3.39E-06
977	0.000152302	0.000122929	0.000653219	-0.000318718	-0.000102234	7.22E-05	-0.000133419	-8.06E-06
978	0.000130177	0.000119162	0.000651121	-0.000342178	-0.000120974	5.06E-05	-0.000154972	-2.62E-05
979	0.000150824	0.000131321	0.000667238	-0.000317526	-9.96E-05	7.30E-05	-0.000132751	-1.20E-05
980	0.000174713	0.000136995	0.000671768	-0.000292492	-7.75E-05	9.58E-05	-0.000109959	7.34E-06
981	0.000163317	0.000129795	0.000662947	-0.000305319	-9.08E-05	8.41E-05	-0.00012145	-1.43E-06
982	0.000153208	0.000121593	0.000652981	-0.000317955	-0.000101137	7.36E-05	-0.000130844	-8.87E-06
983	0.000131035	0.000118923	0.000649357	-0.000342226	-0.000121307	5.11E-05	-0.000153923	-2.72E-05
984	0.000151348	0.000131369	0.000665569	-0.000316906	-9.93E-05	7.41E-05	-0.000132942	-1.24E-05
985	0.00017395	0.000137472	0.000671101	-0.000292635	-7.82E-05	9.65E-05	-0.000110292	6.15E-06
986	0.000163221	0.000130606	0.000662518	-0.000304699	-8.98E-05	8.48E-05	-0.00012126	-1.76E-06
987	0.000153303	0.000122452	0.000653315	-0.000317335	-0.000101185	7.33E-05	-0.000132036	-8.30E-06
988	0.000130844	0.000118399	0.000648165	-0.000341702	-0.00012207	5.16E-05	-0.000153589	-2.60E-05
989	0.000151348	0.000131369	0.000664377	-0.000317907	-0.000100327	7.35E-05	-0.000133181	-1.12E-05
990	0.000174427	0.000137901	0.000671577	-0.000291634	-7.89E-05	9.57E-05	-0.000110435	6.34E-06
991	0.000163412	0.000130796	0.000662613	-0.000304747	-9.18E-05	8.34E-05	-0.000121641	-1.53E-06
992	0.000152731	0.000123119	0.000653267	-0.000318003	-0.000100946	7.27E-05	-0.000132227	-8.54E-06
993	0.000129604	0.00011797	0.000649405	-0.000341272	-0.000121927	5.03E-05	-0.000153732	-2.68E-05
994	0.000150728	0.000130081	0.000664854	-0.000317526	-9.99E-05	7.20E-05	-0.000133181	-1.32E-05
995	0.000173378	0.0001369	0.000670767	-0.00029211	-8.00E-05	9.45E-05	-0.000111198	5.05E-06
996	0.000163698	0.00013032	0.000662947	-0.000303936	-9.12E-05	8.39E-05	-0.000120687	-2.72E-06
997	0.00015316	0.000122833	0.000653362	-0.00031724	-0.000100803	7.28E-05	-0.000131416	-9.25E-06
998	0.000131321	0.000118065	0.000649738	-0.000341654	-0.000121403	5.00E-05	-0.000153637	-2.69E-05
999	0.000151205	0.000129414	0.0006639	-0.000316954	-0.000100327	7.24E-05	-0.000133848	-1.13E-05
